,Time,ppg,hr
294400,2018-06-29 11:18:12.000000,-84.1,82.43
294401,2018-06-29 11:18:12.031250,-96.44,82.43
294402,2018-06-29 11:18:12.062500,-114.36,82.43
294403,2018-06-29 11:18:12.093750,-127.5,82.43
294404,2018-06-29 11:18:12.125000,-115.89,82.43
294405,2018-06-29 11:18:12.156250,-71.92,82.43
294406,2018-06-29 11:18:12.187500,-13.57,82.43
294407,2018-06-29 11:18:12.218750,33.77,82.43
294408,2018-06-29 11:18:12.250000,60.66,82.43
294409,2018-06-29 11:18:12.281250,72.26,82.43
294410,2018-06-29 11:18:12.312500,74.93,82.43
294411,2018-06-29 11:18:12.343750,72.57,82.43
294412,2018-06-29 11:18:12.375000,69.36,82.43
294413,2018-06-29 11:18:12.406250,68.63,82.43
294414,2018-06-29 11:18:12.437500,69.74,82.43
294415,2018-06-29 11:18:12.468750,69.95,82.43
294416,2018-06-29 11:18:12.500000,68.82,82.43
294417,2018-06-29 11:18:12.531250,67.56,82.12
294418,2018-06-29 11:18:12.562500,64.7,82.12
294419,2018-06-29 11:18:12.593750,56.9,82.12
294420,2018-06-29 11:18:12.625000,44.48,82.12
294421,2018-06-29 11:18:12.656250,32.23,82.12
294422,2018-06-29 11:18:12.687500,23.59,82.12
294423,2018-06-29 11:18:12.718750,16.72,82.12
294424,2018-06-29 11:18:12.750000,7.84,82.12
294425,2018-06-29 11:18:12.781250,-3.37,82.12
294426,2018-06-29 11:18:12.812500,-13.84,82.12
294427,2018-06-29 11:18:12.843750,-21.77,82.12
294428,2018-06-29 11:18:12.875000,-29.51,82.12
294429,2018-06-29 11:18:12.906250,-40.46,82.12
294430,2018-06-29 11:18:12.937500,-54.01,82.12
294431,2018-06-29 11:18:12.968750,-65.88,82.12
294432,2018-06-29 11:18:13.000000,-74.12,82.12
294433,2018-06-29 11:18:13.031250,-81.95,82.12
294434,2018-06-29 11:18:13.062500,-94.27,82.12
294435,2018-06-29 11:18:13.093750,-111.16,82.12
294436,2018-06-29 11:18:13.125000,-121.58,82.12
294437,2018-06-29 11:18:13.156250,-107.65,82.12
294438,2018-06-29 11:18:13.187500,-64.81,82.12
294439,2018-06-29 11:18:13.218750,-11.84,82.12
294440,2018-06-29 11:18:13.250000,28.26,82.12
294441,2018-06-29 11:18:13.281250,49.48,82.12
294442,2018-06-29 11:18:13.312500,57.9,82.12
294443,2018-06-29 11:18:13.343750,58.61,82.12
294444,2018-06-29 11:18:13.375000,55.69,82.12
294445,2018-06-29 11:18:13.406250,54.79,82.12
294446,2018-06-29 11:18:13.437500,58.3,82.12
294447,2018-06-29 11:18:13.468750,63.23,82.12
294448,2018-06-29 11:18:13.500000,66.61,82.12
294449,2018-06-29 11:18:13.531250,68.39,81.8
294450,2018-06-29 11:18:13.562500,67.9,81.8
294451,2018-06-29 11:18:13.593750,62.85,81.8
294452,2018-06-29 11:18:13.625000,53.28,81.8
294453,2018-06-29 11:18:13.656250,42.22,81.8
294454,2018-06-29 11:18:13.687500,31.78,81.8
294455,2018-06-29 11:18:13.718750,21.08,81.8
294456,2018-06-29 11:18:13.750000,9.28,81.8
294457,2018-06-29 11:18:13.781250,-1.87,81.8
294458,2018-06-29 11:18:13.812500,-11.09,81.8
294459,2018-06-29 11:18:13.843750,-20.75,81.8
294460,2018-06-29 11:18:13.875000,-33.01,81.8
294461,2018-06-29 11:18:13.906250,-45.44,81.8
294462,2018-06-29 11:18:13.937500,-54.85,81.8
294463,2018-06-29 11:18:13.968750,-62.94,81.8
294464,2018-06-29 11:18:14.000000,-74.74,81.8
294465,2018-06-29 11:18:14.031250,-91.61,81.8
294466,2018-06-29 11:18:14.062500,-104.79,81.8
294467,2018-06-29 11:18:14.093750,-97.86,81.8
294468,2018-06-29 11:18:14.125000,-63.53,81.8
294469,2018-06-29 11:18:14.156250,-15.63,81.8
294470,2018-06-29 11:18:14.187500,24.39,81.8
294471,2018-06-29 11:18:14.218750,48.06,81.8
294472,2018-06-29 11:18:14.250000,59.19,81.8
294473,2018-06-29 11:18:14.281250,61.48,81.8
294474,2018-06-29 11:18:14.312500,57.44,81.8
294475,2018-06-29 11:18:14.343750,52.54,81.8
294476,2018-06-29 11:18:14.375000,51.56,81.8
294477,2018-06-29 11:18:14.406250,53.93,81.8
294478,2018-06-29 11:18:14.437500,56.29,81.8
294479,2018-06-29 11:18:14.468750,56.85,81.8
294480,2018-06-29 11:18:14.500000,55.46,81.8
294481,2018-06-29 11:18:14.531250,51.73,81.48
294482,2018-06-29 11:18:14.562500,44.98,81.48
294483,2018-06-29 11:18:14.593750,35.81,81.48
294484,2018-06-29 11:18:14.625000,26.69,81.48
294485,2018-06-29 11:18:14.656250,19.46,81.48
294486,2018-06-29 11:18:14.687500,13.26,81.48
294487,2018-06-29 11:18:14.718750,6.26,81.48
294488,2018-06-29 11:18:14.750000,-2.21,81.48
294489,2018-06-29 11:18:14.781250,-11.57,81.48
294490,2018-06-29 11:18:14.812500,-20.55,81.48
294491,2018-06-29 11:18:14.843750,-28.72,81.48
294492,2018-06-29 11:18:14.875000,-38.09,81.48
294493,2018-06-29 11:18:14.906250,-50.44,81.48
294494,2018-06-29 11:18:14.937500,-63.72,81.48
294495,2018-06-29 11:18:14.968750,-74.32,81.48
294496,2018-06-29 11:18:15.000000,-82.22,81.48
294497,2018-06-29 11:18:15.031250,-91.29,81.48
294498,2018-06-29 11:18:15.062500,-105.21,81.48
294499,2018-06-29 11:18:15.093750,-120.83,81.48
294500,2018-06-29 11:18:15.125000,-123.68,81.48
294501,2018-06-29 11:18:15.156250,-98.92,81.48
294502,2018-06-29 11:18:15.187500,-50.9,81.48
294503,2018-06-29 11:18:15.218750,-1.57,81.48
294504,2018-06-29 11:18:15.250000,32.22,81.48
294505,2018-06-29 11:18:15.281250,49.5,81.48
294506,2018-06-29 11:18:15.312500,56.24,81.48
294507,2018-06-29 11:18:15.343750,57.3,81.48
294508,2018-06-29 11:18:15.375000,56.33,81.48
294509,2018-06-29 11:18:15.406250,55.74,81.48
294510,2018-06-29 11:18:15.437500,55.88,81.48
294511,2018-06-29 11:18:15.468750,55.9,81.48
294512,2018-06-29 11:18:15.500000,55.82,81.48
294513,2018-06-29 11:18:15.531250,56.12,81.13
294514,2018-06-29 11:18:15.562500,55.53,81.13
294515,2018-06-29 11:18:15.593750,51.59,81.13
294516,2018-06-29 11:18:15.625000,44.23,81.13
294517,2018-06-29 11:18:15.656250,35.81,81.13
294518,2018-06-29 11:18:15.687500,28.2,81.13
294519,2018-06-29 11:18:15.718750,21.71,81.13
294520,2018-06-29 11:18:15.750000,16.07,81.13
294521,2018-06-29 11:18:15.781250,11.21,81.13
294522,2018-06-29 11:18:15.812500,7.04,81.13
294523,2018-06-29 11:18:15.843750,2.56,81.13
294524,2018-06-29 11:18:15.875000,-3.49,81.13
294525,2018-06-29 11:18:15.906250,-10.36,81.13
294526,2018-06-29 11:18:15.937500,-16.57,81.13
294527,2018-06-29 11:18:15.968750,-23.3,81.13
294528,2018-06-29 11:18:16.000000,-32.86,81.13
294529,2018-06-29 11:18:16.031250,-44.49,81.13
294530,2018-06-29 11:18:16.062500,-55.08,81.13
294531,2018-06-29 11:18:16.093750,-63.14,81.13
294532,2018-06-29 11:18:16.125000,-70.63,81.13
294533,2018-06-29 11:18:16.156250,-81.61,81.13
294534,2018-06-29 11:18:16.187500,-96.97,81.13
294535,2018-06-29 11:18:16.218750,-106.79,81.13
294536,2018-06-29 11:18:16.250000,-94.47,81.13
294537,2018-06-29 11:18:16.281250,-56.28,81.13
294538,2018-06-29 11:18:16.312500,-9.7,81.13
294539,2018-06-29 11:18:16.343750,24.82,81.13
294540,2018-06-29 11:18:16.375000,42.1,81.13
294541,2018-06-29 11:18:16.406250,47.77,81.13
294542,2018-06-29 11:18:16.437500,46.73,81.13
294543,2018-06-29 11:18:16.468750,42.57,81.13
294544,2018-06-29 11:18:16.500000,40.03,81.13
294545,2018-06-29 11:18:16.531250,41.62,80.75
294546,2018-06-29 11:18:16.562500,45.03,80.75
294547,2018-06-29 11:18:16.593750,47.32,80.75
294548,2018-06-29 11:18:16.625000,48.47,80.75
294549,2018-06-29 11:18:16.656250,48.22,80.75
294550,2018-06-29 11:18:16.687500,44.12,80.75
294551,2018-06-29 11:18:16.718750,35.64,80.75
294552,2018-06-29 11:18:16.750000,26.06,80.75
294553,2018-06-29 11:18:16.781250,17.57,80.75
294554,2018-06-29 11:18:16.812500,8.91,80.75
294555,2018-06-29 11:18:16.843750,-0.85,80.75
294556,2018-06-29 11:18:16.875000,-9.98,80.75
294557,2018-06-29 11:18:16.906250,-17.31,80.75
294558,2018-06-29 11:18:16.937500,-24.87,80.75
294559,2018-06-29 11:18:16.968750,-34.82,80.75
294560,2018-06-29 11:18:17.000000,-45.87,80.75
294561,2018-06-29 11:18:17.031250,-55.24,80.75
294562,2018-06-29 11:18:17.062500,-63.07,80.75
294563,2018-06-29 11:18:17.093750,-72.64,80.75
294564,2018-06-29 11:18:17.125000,-86.69,80.75
294565,2018-06-29 11:18:17.156250,-101.59,80.75
294566,2018-06-29 11:18:17.187500,-103.84,80.75
294567,2018-06-29 11:18:17.218750,-80.08,80.75
294568,2018-06-29 11:18:17.250000,-35.15,80.75
294569,2018-06-29 11:18:17.281250,9.41,80.75
294570,2018-06-29 11:18:17.312500,38.02,80.75
294571,2018-06-29 11:18:17.343750,51.83,80.75
294572,2018-06-29 11:18:17.375000,57.03,80.75
294573,2018-06-29 11:18:17.406250,56.23,80.75
294574,2018-06-29 11:18:17.437500,52.66,80.75
294575,2018-06-29 11:18:17.468750,51.37,80.75
294576,2018-06-29 11:18:17.500000,53.57,80.75
294577,2018-06-29 11:18:17.531250,56.0,80.35
294578,2018-06-29 11:18:17.562500,56.47,80.35
294579,2018-06-29 11:18:17.593750,55.25,80.35
294580,2018-06-29 11:18:17.625000,51.89,80.35
294581,2018-06-29 11:18:17.656250,44.96,80.35
294582,2018-06-29 11:18:17.687500,34.79,80.35
294583,2018-06-29 11:18:17.718750,23.43,80.35
294584,2018-06-29 11:18:17.750000,12.19,80.35
294585,2018-06-29 11:18:17.781250,0.92,80.35
294586,2018-06-29 11:18:17.812500,-10.21,80.35
294587,2018-06-29 11:18:17.843750,-20.9,80.35
294588,2018-06-29 11:18:17.875000,-32.51,80.35
294589,2018-06-29 11:18:17.906250,-46.2,80.35
294590,2018-06-29 11:18:17.937500,-59.72,80.35
294591,2018-06-29 11:18:17.968750,-69.95,80.35
294592,2018-06-29 11:18:18.000000,-78.33,80.35
294593,2018-06-29 11:18:18.031250,-90.21,80.35
294594,2018-06-29 11:18:18.062500,-107.71,80.35
294595,2018-06-29 11:18:18.093750,-122.15,80.35
294596,2018-06-29 11:18:18.125000,-116.29,80.35
294597,2018-06-29 11:18:18.156250,-81.33,80.35
294598,2018-06-29 11:18:18.187500,-29.95,80.35
294599,2018-06-29 11:18:18.218750,15.85,80.35
294600,2018-06-29 11:18:18.250000,45.74,80.35
294601,2018-06-29 11:18:18.281250,62.55,80.35
294602,2018-06-29 11:18:18.312500,70.76,80.35
294603,2018-06-29 11:18:18.343750,72.64,80.35
294604,2018-06-29 11:18:18.375000,71.05,80.35
294605,2018-06-29 11:18:18.406250,69.59,80.35
294606,2018-06-29 11:18:18.437500,70.14,80.35
294607,2018-06-29 11:18:18.468750,71.82,80.35
294608,2018-06-29 11:18:18.500000,72.87,80.35
294609,2018-06-29 11:18:18.531250,72.36,79.92
294610,2018-06-29 11:18:18.562500,69.15,79.92
294611,2018-06-29 11:18:18.593750,61.58,79.92
294612,2018-06-29 11:18:18.625000,50.3,79.92
294613,2018-06-29 11:18:18.656250,38.7,79.92
294614,2018-06-29 11:18:18.687500,29.12,79.92
294615,2018-06-29 11:18:18.718750,20.86,79.92
294616,2018-06-29 11:18:18.750000,12.11,79.92
294617,2018-06-29 11:18:18.781250,1.94,79.92
294618,2018-06-29 11:18:18.812500,-8.98,79.92
294619,2018-06-29 11:18:18.843750,-18.96,79.92
294620,2018-06-29 11:18:18.875000,-28.17,79.92
294621,2018-06-29 11:18:18.906250,-39.17,79.92
294622,2018-06-29 11:18:18.937500,-52.65,79.92
294623,2018-06-29 11:18:18.968750,-64.86,79.92
294624,2018-06-29 11:18:19.000000,-72.05,79.92
294625,2018-06-29 11:18:19.031250,-76.09,79.92
294626,2018-06-29 11:18:19.062500,-83.35,79.92
294627,2018-06-29 11:18:19.093750,-98.66,79.92
294628,2018-06-29 11:18:19.125000,-117.12,79.92
294629,2018-06-29 11:18:19.156250,-121.27,79.92
294630,2018-06-29 11:18:19.187500,-95.56,79.92
294631,2018-06-29 11:18:19.218750,-46.24,79.92
294632,2018-06-29 11:18:19.250000,3.35,79.92
294633,2018-06-29 11:18:19.281250,37.47,79.92
294634,2018-06-29 11:18:19.312500,56.86,79.92
294635,2018-06-29 11:18:19.343750,66.82,79.92
294636,2018-06-29 11:18:19.375000,69.95,79.92
294637,2018-06-29 11:18:19.406250,69.3,79.92
294638,2018-06-29 11:18:19.437500,68.7,79.92
294639,2018-06-29 11:18:19.468750,69.67,79.92
294640,2018-06-29 11:18:19.500000,71.26,79.92
294641,2018-06-29 11:18:19.531250,72.14,79.48
294642,2018-06-29 11:18:19.562500,71.51,79.48
294643,2018-06-29 11:18:19.593750,68.54,79.48
294644,2018-06-29 11:18:19.625000,62.27,79.48
294645,2018-06-29 11:18:19.656250,53.26,79.48
294646,2018-06-29 11:18:19.687500,44.58,79.48
294647,2018-06-29 11:18:19.718750,38.68,79.48
294648,2018-06-29 11:18:19.750000,33.85,79.48
294649,2018-06-29 11:18:19.781250,27.39,79.48
294650,2018-06-29 11:18:19.812500,20.26,79.48
294651,2018-06-29 11:18:19.843750,14.76,79.48
294652,2018-06-29 11:18:19.875000,9.78,79.48
294653,2018-06-29 11:18:19.906250,2.63,79.48
294654,2018-06-29 11:18:19.937500,-6.01,79.48
294655,2018-06-29 11:18:19.968750,-13.04,79.48
294656,2018-06-29 11:18:20.000000,-18.61,79.48
294657,2018-06-29 11:18:20.031250,-26.59,79.48
294658,2018-06-29 11:18:20.062500,-38.34,79.48
294659,2018-06-29 11:18:20.093750,-50.27,79.48
294660,2018-06-29 11:18:20.125000,-59.32,79.48
294661,2018-06-29 11:18:20.156250,-67.06,79.48
294662,2018-06-29 11:18:20.187500,-77.2,79.48
294663,2018-06-29 11:18:20.218750,-90.6,79.48
294664,2018-06-29 11:18:20.250000,-99.94,79.48
294665,2018-06-29 11:18:20.281250,-90.94,79.48
294666,2018-06-29 11:18:20.312500,-57.34,79.48
294667,2018-06-29 11:18:20.343750,-12.32,79.48
294668,2018-06-29 11:18:20.375000,23.75,79.48
294669,2018-06-29 11:18:20.406250,42.92,79.48
294670,2018-06-29 11:18:20.437500,49.67,79.48
294671,2018-06-29 11:18:20.468750,49.6,79.48
294672,2018-06-29 11:18:20.500000,46.47,79.48
294673,2018-06-29 11:18:20.531250,44.72,79.03
294674,2018-06-29 11:18:20.562500,47.05,79.03
294675,2018-06-29 11:18:20.593750,51.07,79.03
294676,2018-06-29 11:18:20.625000,52.84,79.03
294677,2018-06-29 11:18:20.656250,52.22,79.03
294678,2018-06-29 11:18:20.687500,51.2,79.03
294679,2018-06-29 11:18:20.718750,48.88,79.03
294680,2018-06-29 11:18:20.750000,43.15,79.03
294681,2018-06-29 11:18:20.781250,35.22,79.03
294682,2018-06-29 11:18:20.812500,27.99,79.03
294683,2018-06-29 11:18:20.843750,21.9,79.03
294684,2018-06-29 11:18:20.875000,15.39,79.03
294685,2018-06-29 11:18:20.906250,7.44,79.03
294686,2018-06-29 11:18:20.937500,-1.52,79.03
294687,2018-06-29 11:18:20.968750,-9.99,79.03
294688,2018-06-29 11:18:21.000000,-17.1,79.03
294689,2018-06-29 11:18:21.031250,-24.68,79.03
294690,2018-06-29 11:18:21.062500,-35.39,79.03
294691,2018-06-29 11:18:21.093750,-48.26,79.03
294692,2018-06-29 11:18:21.125000,-59.22,79.03
294693,2018-06-29 11:18:21.156250,-66.72,79.03
294694,2018-06-29 11:18:21.187500,-74.34,79.03
294695,2018-06-29 11:18:21.218750,-86.65,79.03
294696,2018-06-29 11:18:21.250000,-101.96,79.03
294697,2018-06-29 11:18:21.281250,-108.09,79.03
294698,2018-06-29 11:18:21.312500,-91.12,79.03
294699,2018-06-29 11:18:21.343750,-52.31,79.03
294700,2018-06-29 11:18:21.375000,-9.61,79.03
294701,2018-06-29 11:18:21.406250,21.07,79.03
294702,2018-06-29 11:18:21.437500,37.89,79.03
294703,2018-06-29 11:18:21.468750,46.4,79.03
294704,2018-06-29 11:18:21.500000,50.42,79.03
294705,2018-06-29 11:18:21.531250,51.39,78.57
294706,2018-06-29 11:18:21.562500,50.87,78.57
294707,2018-06-29 11:18:21.593750,50.49,78.57
294708,2018-06-29 11:18:21.625000,50.53,78.57
294709,2018-06-29 11:18:21.656250,50.68,78.57
294710,2018-06-29 11:18:21.687500,51.5,78.57
294711,2018-06-29 11:18:21.718750,52.57,78.57
294712,2018-06-29 11:18:21.750000,51.02,78.57
294713,2018-06-29 11:18:21.781250,45.15,78.57
294714,2018-06-29 11:18:21.812500,37.58,78.57
294715,2018-06-29 11:18:21.843750,31.58,78.57
294716,2018-06-29 11:18:21.875000,26.72,78.57
294717,2018-06-29 11:18:21.906250,20.82,78.57
294718,2018-06-29 11:18:21.937500,14.06,78.57
294719,2018-06-29 11:18:21.968750,8.18,78.57
294720,2018-06-29 11:18:22.000000,2.7,78.57
294721,2018-06-29 11:18:22.031250,-4.67,78.57
294722,2018-06-29 11:18:22.062500,-13.91,78.57
294723,2018-06-29 11:18:22.093750,-22.55,78.57
294724,2018-06-29 11:18:22.125000,-30.04,78.57
294725,2018-06-29 11:18:22.156250,-38.91,78.57
294726,2018-06-29 11:18:22.187500,-50.34,78.57
294727,2018-06-29 11:18:22.218750,-61.68,78.57
294728,2018-06-29 11:18:22.250000,-70.09,78.57
294729,2018-06-29 11:18:22.281250,-76.4,78.57
294730,2018-06-29 11:18:22.312500,-84.63,78.57
294731,2018-06-29 11:18:22.343750,-98.0,78.57
294732,2018-06-29 11:18:22.375000,-111.11,78.57
294733,2018-06-29 11:18:22.406250,-108.19,78.57
294734,2018-06-29 11:18:22.437500,-79.04,78.57
294735,2018-06-29 11:18:22.468750,-34.63,78.57
294736,2018-06-29 11:18:22.500000,3.85,78.57
294737,2018-06-29 11:18:22.531250,27.41,78.08
294738,2018-06-29 11:18:22.562500,40.35,78.08
294739,2018-06-29 11:18:22.593750,47.18,78.08
294740,2018-06-29 11:18:22.625000,49.42,78.08
294741,2018-06-29 11:18:22.656250,49.82,78.08
294742,2018-06-29 11:18:22.687500,50.95,78.08
294743,2018-06-29 11:18:22.718750,52.62,78.08
294744,2018-06-29 11:18:22.750000,53.74,78.08
294745,2018-06-29 11:18:22.781250,54.79,78.08
294746,2018-06-29 11:18:22.812500,56.54,78.08
294747,2018-06-29 11:18:22.843750,57.56,78.08
294748,2018-06-29 11:18:22.875000,55.23,78.08
294749,2018-06-29 11:18:22.906250,49.07,78.08
294750,2018-06-29 11:18:22.937500,41.73,78.08
294751,2018-06-29 11:18:22.968750,35.95,78.08
294752,2018-06-29 11:18:23.000000,31.64,78.08
294753,2018-06-29 11:18:23.031250,26.7,78.08
294754,2018-06-29 11:18:23.062500,20.27,78.08
294755,2018-06-29 11:18:23.093750,13.84,78.08
294756,2018-06-29 11:18:23.125000,8.9,78.08
294757,2018-06-29 11:18:23.156250,4.5,78.08
294758,2018-06-29 11:18:23.187500,-1.54,78.08
294759,2018-06-29 11:18:23.218750,-9.35,78.08
294760,2018-06-29 11:18:23.250000,-17.07,78.08
294761,2018-06-29 11:18:23.281250,-23.88,78.08
294762,2018-06-29 11:18:23.312500,-31.23,78.08
294763,2018-06-29 11:18:23.343750,-40.6,78.08
294764,2018-06-29 11:18:23.375000,-51.45,78.08
294765,2018-06-29 11:18:23.406250,-61.43,78.08
294766,2018-06-29 11:18:23.437500,-69.08,78.08
294767,2018-06-29 11:18:23.468750,-76.26,78.08
294768,2018-06-29 11:18:23.500000,-87.12,78.08
294769,2018-06-29 11:18:23.531250,-102.81,77.57
294770,2018-06-29 11:18:23.562500,-115.22,77.57
294771,2018-06-29 11:18:23.593750,-108.79,77.57
294772,2018-06-29 11:18:23.625000,-76.33,77.57
294773,2018-06-29 11:18:23.656250,-30.46,77.57
294774,2018-06-29 11:18:23.687500,8.33,77.57
294775,2018-06-29 11:18:23.718750,30.99,77.57
294776,2018-06-29 11:18:23.750000,41.19,77.57
294777,2018-06-29 11:18:23.781250,44.31,77.57
294778,2018-06-29 11:18:23.812500,43.52,77.57
294779,2018-06-29 11:18:23.843750,42.28,77.57
294780,2018-06-29 11:18:23.875000,43.82,77.57
294781,2018-06-29 11:18:23.906250,48.14,77.57
294782,2018-06-29 11:18:23.937500,52.44,77.57
294783,2018-06-29 11:18:23.968750,54.83,77.57
294784,2018-06-29 11:18:24.000000,55.43,77.57
294785,2018-06-29 11:18:24.031250,53.74,77.57
294786,2018-06-29 11:18:24.062500,48.76,77.57
294787,2018-06-29 11:18:24.093750,41.94,77.57
294788,2018-06-29 11:18:24.125000,36.07,77.57
294789,2018-06-29 11:18:24.156250,31.27,77.57
294790,2018-06-29 11:18:24.187500,25.91,77.57
294791,2018-06-29 11:18:24.218750,20.37,77.57
294792,2018-06-29 11:18:24.250000,15.73,77.57
294793,2018-06-29 11:18:24.281250,10.31,77.57
294794,2018-06-29 11:18:24.312500,2.13,77.57
294795,2018-06-29 11:18:24.343750,-6.88,77.57
294796,2018-06-29 11:18:24.375000,-13.67,77.57
294797,2018-06-29 11:18:24.406250,-19.25,77.57
294798,2018-06-29 11:18:24.437500,-27.18,77.57
294799,2018-06-29 11:18:24.468750,-37.49,77.57
294800,2018-06-29 11:18:24.500000,-46.61,77.57
294801,2018-06-29 11:18:24.531250,-53.47,77.03
294802,2018-06-29 11:18:24.562500,-61.43,77.03
294803,2018-06-29 11:18:24.593750,-74.1,77.03
294804,2018-06-29 11:18:24.625000,-88.98,77.03
294805,2018-06-29 11:18:24.656250,-94.06,77.03
294806,2018-06-29 11:18:24.687500,-75.9,77.03
294807,2018-06-29 11:18:24.718750,-36.17,77.03
294808,2018-06-29 11:18:24.750000,6.89,77.03
294809,2018-06-29 11:18:24.781250,37.33,77.03
294810,2018-06-29 11:18:24.812500,53.08,77.03
294811,2018-06-29 11:18:24.843750,58.79,77.03
294812,2018-06-29 11:18:24.875000,57.96,77.03
294813,2018-06-29 11:18:24.906250,54.22,77.03
294814,2018-06-29 11:18:24.937500,52.16,77.03
294815,2018-06-29 11:18:24.968750,54.06,77.03
294816,2018-06-29 11:18:25.000000,58.06,77.03
294817,2018-06-29 11:18:25.031250,60.64,77.03
294818,2018-06-29 11:18:25.062500,60.13,77.03
294819,2018-06-29 11:18:25.093750,56.5,77.03
294820,2018-06-29 11:18:25.125000,49.36,77.03
294821,2018-06-29 11:18:25.156250,38.63,77.03
294822,2018-06-29 11:18:25.187500,26.77,77.03
294823,2018-06-29 11:18:25.218750,17.43,77.03
294824,2018-06-29 11:18:25.250000,11.43,77.03
294825,2018-06-29 11:18:25.281250,6.21,77.03
294826,2018-06-29 11:18:25.312500,-0.57,77.03
294827,2018-06-29 11:18:25.343750,-8.95,77.03
294828,2018-06-29 11:18:25.375000,-17.8,77.03
294829,2018-06-29 11:18:25.406250,-25.98,77.03
294830,2018-06-29 11:18:25.437500,-33.4,77.03
294831,2018-06-29 11:18:25.468750,-41.79,77.03
294832,2018-06-29 11:18:25.500000,-52.76,77.03
294833,2018-06-29 11:18:25.531250,-64.98,76.5
294834,2018-06-29 11:18:25.562500,-75.17,76.5
294835,2018-06-29 11:18:25.593750,-82.56,76.5
294836,2018-06-29 11:18:25.625000,-91.0,76.5
294837,2018-06-29 11:18:25.656250,-105.01,76.5
294838,2018-06-29 11:18:25.687500,-120.2,76.5
294839,2018-06-29 11:18:25.718750,-120.32,76.5
294840,2018-06-29 11:18:25.750000,-92.86,76.5
294841,2018-06-29 11:18:25.781250,-46.31,76.5
294842,2018-06-29 11:18:25.812500,-2.07,76.5
294843,2018-06-29 11:18:25.843750,27.68,76.5
294844,2018-06-29 11:18:25.875000,43.99,76.5
294845,2018-06-29 11:18:25.906250,50.83,76.5
294846,2018-06-29 11:18:25.937500,51.82,76.5
294847,2018-06-29 11:18:25.968750,51.66,76.5
294848,2018-06-29 11:18:26.000000,53.04,76.5
294849,2018-06-29 11:18:26.031250,55.16,76.5
294850,2018-06-29 11:18:26.062500,56.99,76.5
294851,2018-06-29 11:18:26.093750,58.66,76.5
294852,2018-06-29 11:18:26.125000,59.8,76.5
294853,2018-06-29 11:18:26.156250,58.73,76.5
294854,2018-06-29 11:18:26.187500,54.22,76.5
294855,2018-06-29 11:18:26.218750,47.4,76.5
294856,2018-06-29 11:18:26.250000,40.84,76.5
294857,2018-06-29 11:18:26.281250,35.34,76.5
294858,2018-06-29 11:18:26.312500,29.47,76.5
294859,2018-06-29 11:18:26.343750,22.52,76.5
294860,2018-06-29 11:18:26.375000,15.69,76.5
294861,2018-06-29 11:18:26.406250,9.7,76.5
294862,2018-06-29 11:18:26.437500,3.29,76.5
294863,2018-06-29 11:18:26.468750,-4.68,76.5
294864,2018-06-29 11:18:26.500000,-13.3,76.5
294865,2018-06-29 11:18:26.531250,-21.5,75.95
294866,2018-06-29 11:18:26.562500,-30.72,75.95
294867,2018-06-29 11:18:26.593750,-43.15,75.95
294868,2018-06-29 11:18:26.625000,-57.48,75.95
294869,2018-06-29 11:18:26.656250,-69.88,75.95
294870,2018-06-29 11:18:26.687500,-79.31,75.95
294871,2018-06-29 11:18:26.718750,-89.19,75.95
294872,2018-06-29 11:18:26.750000,-103.8,75.95
294873,2018-06-29 11:18:26.781250,-121.43,75.95
294874,2018-06-29 11:18:26.812500,-128.73,75.95
294875,2018-06-29 11:18:26.843750,-109.08,75.95
294876,2018-06-29 11:18:26.875000,-63.01,75.95
294877,2018-06-29 11:18:26.906250,-11.6,75.95
294878,2018-06-29 11:18:26.937500,25.83,75.95
294879,2018-06-29 11:18:26.968750,47.01,75.95
294880,2018-06-29 11:18:27.000000,57.93,75.95
294881,2018-06-29 11:18:27.031250,62.04,75.95
294882,2018-06-29 11:18:27.062500,61.94,75.95
294883,2018-06-29 11:18:27.093750,61.72,75.95
294884,2018-06-29 11:18:27.125000,63.52,75.95
294885,2018-06-29 11:18:27.156250,66.06,75.95
294886,2018-06-29 11:18:27.187500,67.92,75.95
294887,2018-06-29 11:18:27.218750,69.25,75.95
294888,2018-06-29 11:18:27.250000,69.48,75.95
294889,2018-06-29 11:18:27.281250,66.39,75.95
294890,2018-06-29 11:18:27.312500,58.99,75.95
294891,2018-06-29 11:18:27.343750,49.12,75.95
294892,2018-06-29 11:18:27.375000,39.47,75.95
294893,2018-06-29 11:18:27.406250,31.28,75.95
294894,2018-06-29 11:18:27.437500,24.33,75.95
294895,2018-06-29 11:18:27.468750,17.79,75.95
294896,2018-06-29 11:18:27.500000,10.54,75.95
294897,2018-06-29 11:18:27.531250,2.08,75.42
294898,2018-06-29 11:18:27.562500,-6.59,75.42
294899,2018-06-29 11:18:27.593750,-14.42,75.42
294900,2018-06-29 11:18:27.625000,-22.77,75.42
294901,2018-06-29 11:18:27.656250,-33.72,75.42
294902,2018-06-29 11:18:27.687500,-46.18,75.42
294903,2018-06-29 11:18:27.718750,-56.57,75.42
294904,2018-06-29 11:18:27.750000,-63.89,75.42
294905,2018-06-29 11:18:27.781250,-71.49,75.42
294906,2018-06-29 11:18:27.812500,-83.38,75.42
294907,2018-06-29 11:18:27.843750,-99.25,75.42
294908,2018-06-29 11:18:27.875000,-109.42,75.42
294909,2018-06-29 11:18:27.906250,-98.01,75.42
294910,2018-06-29 11:18:27.937500,-59.81,75.42
294911,2018-06-29 11:18:27.968750,-10.32,75.42
294912,2018-06-29 11:18:28.000000,29.24,75.42
294913,2018-06-29 11:18:28.031250,51.53,75.42
294914,2018-06-29 11:18:28.062500,60.61,75.42
294915,2018-06-29 11:18:28.093750,60.32,75.42
294916,2018-06-29 11:18:28.125000,54.58,75.42
294917,2018-06-29 11:18:28.156250,50.34,75.42
294918,2018-06-29 11:18:28.187500,51.8,75.42
294919,2018-06-29 11:18:28.218750,56.37,75.42
294920,2018-06-29 11:18:28.250000,59.79,75.42
294921,2018-06-29 11:18:28.281250,61.53,75.42
294922,2018-06-29 11:18:28.312500,62.3,75.42
294923,2018-06-29 11:18:28.343750,60.12,75.42
294924,2018-06-29 11:18:28.375000,52.59,75.42
294925,2018-06-29 11:18:28.406250,41.56,75.42
294926,2018-06-29 11:18:28.437500,31.76,75.42
294927,2018-06-29 11:18:28.468750,24.79,75.42
294928,2018-06-29 11:18:28.500000,17.65,75.42
294929,2018-06-29 11:18:28.531250,7.72,74.88
294930,2018-06-29 11:18:28.562500,-3.71,74.88
294931,2018-06-29 11:18:28.593750,-13.46,74.88
294932,2018-06-29 11:18:28.625000,-20.89,74.88
294933,2018-06-29 11:18:28.656250,-29.18,74.88
294934,2018-06-29 11:18:28.687500,-41.34,74.88
294935,2018-06-29 11:18:28.718750,-55.85,74.88
294936,2018-06-29 11:18:28.750000,-68.61,74.88
294937,2018-06-29 11:18:28.781250,-78.6,74.88
294938,2018-06-29 11:18:28.812500,-89.99,74.88
294939,2018-06-29 11:18:28.843750,-107.51,74.88
294940,2018-06-29 11:18:28.875000,-126.7,74.88
294941,2018-06-29 11:18:28.906250,-130.37,74.88
294942,2018-06-29 11:18:28.937500,-103.63,74.88
294943,2018-06-29 11:18:28.968750,-53.42,74.88
294944,2018-06-29 11:18:29.000000,-2.8,74.88
294945,2018-06-29 11:18:29.031250,33.4,74.88
294946,2018-06-29 11:18:29.062500,56.33,74.88
294947,2018-06-29 11:18:29.093750,70.51,74.88
294948,2018-06-29 11:18:29.125000,77.1,74.88
294949,2018-06-29 11:18:29.156250,78.3,74.88
294950,2018-06-29 11:18:29.187500,77.92,74.88
294951,2018-06-29 11:18:29.218750,77.93,74.88
294952,2018-06-29 11:18:29.250000,78.41,74.88
294953,2018-06-29 11:18:29.281250,79.51,74.88
294954,2018-06-29 11:18:29.312500,81.06,74.88
294955,2018-06-29 11:18:29.343750,81.07,74.88
294956,2018-06-29 11:18:29.375000,76.89,74.88
294957,2018-06-29 11:18:29.406250,68.42,74.88
294958,2018-06-29 11:18:29.437500,58.76,74.88
294959,2018-06-29 11:18:29.468750,50.59,74.88
294960,2018-06-29 11:18:29.500000,43.49,74.88
294961,2018-06-29 11:18:29.531250,35.96,74.35
294962,2018-06-29 11:18:29.562500,28.15,74.35
294963,2018-06-29 11:18:29.593750,20.98,74.35
294964,2018-06-29 11:18:29.625000,14.05,74.35
294965,2018-06-29 11:18:29.656250,6.05,74.35
294966,2018-06-29 11:18:29.687500,-3.29,74.35
294967,2018-06-29 11:18:29.718750,-12.63,74.35
294968,2018-06-29 11:18:29.750000,-21.27,74.35
294969,2018-06-29 11:18:29.781250,-30.82,74.35
294970,2018-06-29 11:18:29.812500,-42.98,74.35
294971,2018-06-29 11:18:29.843750,-56.27,74.35
294972,2018-06-29 11:18:29.875000,-67.49,74.35
294973,2018-06-29 11:18:29.906250,-76.59,74.35
294974,2018-06-29 11:18:29.937500,-88.06,74.35
294975,2018-06-29 11:18:29.968750,-104.89,74.35
294976,2018-06-29 11:18:30.000000,-118.68,74.35
294977,2018-06-29 11:18:30.031250,-111.38,74.35
294978,2018-06-29 11:18:30.062500,-74.7,74.35
294979,2018-06-29 11:18:30.093750,-23.07,74.35
294980,2018-06-29 11:18:30.125000,20.86,74.35
294981,2018-06-29 11:18:30.156250,47.64,74.35
294982,2018-06-29 11:18:30.187500,61.58,74.35
294983,2018-06-29 11:18:30.218750,68.68,74.35
294984,2018-06-29 11:18:30.250000,71.83,74.35
294985,2018-06-29 11:18:30.281250,72.88,74.35
294986,2018-06-29 11:18:30.312500,73.46,74.35
294987,2018-06-29 11:18:30.343750,74.04,74.35
294988,2018-06-29 11:18:30.375000,74.53,74.35
294989,2018-06-29 11:18:30.406250,75.41,74.35
294990,2018-06-29 11:18:30.437500,76.05,74.35
294991,2018-06-29 11:18:30.468750,73.42,74.35
294992,2018-06-29 11:18:30.500000,66.01,74.35
294993,2018-06-29 11:18:30.531250,56.73,73.83
294994,2018-06-29 11:18:30.562500,48.83,73.83
294995,2018-06-29 11:18:30.593750,42.26,73.83
294996,2018-06-29 11:18:30.625000,35.56,73.83
294997,2018-06-29 11:18:30.656250,28.08,73.83
294998,2018-06-29 11:18:30.687500,19.92,73.83
294999,2018-06-29 11:18:30.718750,12.23,73.83
295000,2018-06-29 11:18:30.750000,6.18,73.83
295001,2018-06-29 11:18:30.781250,0.63,73.83
295002,2018-06-29 11:18:30.812500,-7.02,73.83
295003,2018-06-29 11:18:30.843750,-16.99,73.83
295004,2018-06-29 11:18:30.875000,-26.53,73.83
295005,2018-06-29 11:18:30.906250,-33.76,73.83
295006,2018-06-29 11:18:30.937500,-40.37,73.83
295007,2018-06-29 11:18:30.968750,-49.39,73.83
295008,2018-06-29 11:18:31.000000,-61.17,73.83
295009,2018-06-29 11:18:31.031250,-72.81,73.83
295010,2018-06-29 11:18:31.062500,-81.78,73.83
295011,2018-06-29 11:18:31.093750,-89.88,73.83
295012,2018-06-29 11:18:31.125000,-101.86,73.83
295013,2018-06-29 11:18:31.156250,-118.32,73.83
295014,2018-06-29 11:18:31.187500,-128.31,73.83
295015,2018-06-29 11:18:31.218750,-115.09,73.83
295016,2018-06-29 11:18:31.250000,-75.26,73.83
295017,2018-06-29 11:18:31.281250,-26.06,73.83
295018,2018-06-29 11:18:31.312500,12.18,73.83
295019,2018-06-29 11:18:31.343750,33.62,73.83
295020,2018-06-29 11:18:31.375000,43.32,73.83
295021,2018-06-29 11:18:31.406250,46.55,73.83
295022,2018-06-29 11:18:31.437500,46.58,73.83
295023,2018-06-29 11:18:31.468750,46.2,73.83
295024,2018-06-29 11:18:31.500000,46.94,73.83
295025,2018-06-29 11:18:31.531250,48.22,73.32
295026,2018-06-29 11:18:31.562500,48.74,73.32
295027,2018-06-29 11:18:31.593750,48.44,73.32
295028,2018-06-29 11:18:31.625000,47.4,73.32
295029,2018-06-29 11:18:31.656250,44.3,73.32
295030,2018-06-29 11:18:31.687500,38.1,73.32
295031,2018-06-29 11:18:31.718750,30.65,73.32
295032,2018-06-29 11:18:31.750000,24.75,73.32
295033,2018-06-29 11:18:31.781250,20.32,73.32
295034,2018-06-29 11:18:31.812500,15.8,73.32
295035,2018-06-29 11:18:31.843750,11.87,73.32
295036,2018-06-29 11:18:31.875000,9.6,73.32
295037,2018-06-29 11:18:31.906250,6.63,73.32
295038,2018-06-29 11:18:31.937500,0.2,73.32
295039,2018-06-29 11:18:31.968750,-7.95,73.32
295040,2018-06-29 11:18:32.000000,-14.7,73.32
295041,2018-06-29 11:18:32.031250,-21.28,73.32
295042,2018-06-29 11:18:32.062500,-31.18,73.32
295043,2018-06-29 11:18:32.093750,-43.7,73.32
295044,2018-06-29 11:18:32.125000,-54.21,73.32
295045,2018-06-29 11:18:32.156250,-60.36,73.32
295046,2018-06-29 11:18:32.187500,-65.06,73.32
295047,2018-06-29 11:18:32.218750,-73.34,73.32
295048,2018-06-29 11:18:32.250000,-85.93,73.32
295049,2018-06-29 11:18:32.281250,-93.45,73.32
295050,2018-06-29 11:18:32.312500,-80.97,73.32
295051,2018-06-29 11:18:32.343750,-45.39,73.32
295052,2018-06-29 11:18:32.375000,-2.91,73.32
295053,2018-06-29 11:18:32.406250,27.68,73.32
295054,2018-06-29 11:18:32.437500,42.46,73.32
295055,2018-06-29 11:18:32.468750,48.01,73.32
295056,2018-06-29 11:18:32.500000,48.7,73.32
295057,2018-06-29 11:18:32.531250,45.9,72.82
295058,2018-06-29 11:18:32.562500,43.18,72.82
295059,2018-06-29 11:18:32.593750,44.09,72.82
295060,2018-06-29 11:18:32.625000,47.15,72.82
295061,2018-06-29 11:18:32.656250,48.54,72.82
295062,2018-06-29 11:18:32.687500,47.7,72.82
295063,2018-06-29 11:18:32.718750,45.67,72.82
295064,2018-06-29 11:18:32.750000,41.06,72.82
295065,2018-06-29 11:18:32.781250,32.57,72.82
295066,2018-06-29 11:18:32.812500,22.19,72.82
295067,2018-06-29 11:18:32.843750,12.93,72.82
295068,2018-06-29 11:18:32.875000,5.86,72.82
295069,2018-06-29 11:18:32.906250,0.23,72.82
295070,2018-06-29 11:18:32.937500,-5.43,72.82
295071,2018-06-29 11:18:32.968750,-12.04,72.82
295072,2018-06-29 11:18:33.000000,-18.84,72.82
295073,2018-06-29 11:18:33.031250,-25.13,72.82
295074,2018-06-29 11:18:33.062500,-32.46,72.82
295075,2018-06-29 11:18:33.093750,-42.97,72.82
295076,2018-06-29 11:18:33.125000,-55.53,72.82
295077,2018-06-29 11:18:33.156250,-66.31,72.82
295078,2018-06-29 11:18:33.187500,-73.58,72.82
295079,2018-06-29 11:18:33.218750,-80.29,72.82
295080,2018-06-29 11:18:33.250000,-91.43,72.82
295081,2018-06-29 11:18:33.281250,-107.3,72.82
295082,2018-06-29 11:18:33.312500,-116.85,72.82
295083,2018-06-29 11:18:33.343750,-103.09,72.82
295084,2018-06-29 11:18:33.375000,-62.89,72.82
295085,2018-06-29 11:18:33.406250,-14.56,72.82
295086,2018-06-29 11:18:33.437500,21.33,72.82
295087,2018-06-29 11:18:33.468750,40.48,72.82
295088,2018-06-29 11:18:33.500000,49.2,72.82
295089,2018-06-29 11:18:33.531250,52.2,72.32
295090,2018-06-29 11:18:33.562500,52.12,72.32
295091,2018-06-29 11:18:33.593750,52.14,72.32
295092,2018-06-29 11:18:33.625000,53.53,72.32
295093,2018-06-29 11:18:33.656250,54.46,72.32
295094,2018-06-29 11:18:33.687500,54.04,72.32
295095,2018-06-29 11:18:33.718750,54.22,72.32
295096,2018-06-29 11:18:33.750000,55.55,72.32
295097,2018-06-29 11:18:33.781250,54.81,72.32
295098,2018-06-29 11:18:33.812500,49.88,72.32
295099,2018-06-29 11:18:33.843750,42.98,72.32
295100,2018-06-29 11:18:33.875000,36.86,72.32
295101,2018-06-29 11:18:33.906250,30.87,72.32
295102,2018-06-29 11:18:33.937500,23.5,72.32
295103,2018-06-29 11:18:33.968750,15.96,72.32
295104,2018-06-29 11:18:34.000000,10.2,72.32
295105,2018-06-29 11:18:34.031250,5.27,72.32
295106,2018-06-29 11:18:34.062500,-1.76,72.32
295107,2018-06-29 11:18:34.093750,-11.53,72.32
295108,2018-06-29 11:18:34.125000,-21.42,72.32
295109,2018-06-29 11:18:34.156250,-29.93,72.32
295110,2018-06-29 11:18:34.187500,-39.23,72.32
295111,2018-06-29 11:18:34.218750,-51.33,72.32
295112,2018-06-29 11:18:34.250000,-64.47,72.32
295113,2018-06-29 11:18:34.281250,-75.54,72.32
295114,2018-06-29 11:18:34.312500,-84.4,72.32
295115,2018-06-29 11:18:34.343750,-94.51,72.32
295116,2018-06-29 11:18:34.375000,-109.35,72.32
295117,2018-06-29 11:18:34.406250,-123.65,72.32
295118,2018-06-29 11:18:34.437500,-120.5,72.32
295119,2018-06-29 11:18:34.468750,-87.95,72.32
295120,2018-06-29 11:18:34.500000,-36.79,72.32
295121,2018-06-29 11:18:34.531250,9.32,71.8
295122,2018-06-29 11:18:34.562500,37.95,71.8
295123,2018-06-29 11:18:34.593750,52.65,71.8
295124,2018-06-29 11:18:34.625000,60.2,71.8
295125,2018-06-29 11:18:34.656250,63.91,71.8
295126,2018-06-29 11:18:34.687500,65.96,71.8
295127,2018-06-29 11:18:34.718750,68.26,71.8
295128,2018-06-29 11:18:34.750000,70.54,71.8
295129,2018-06-29 11:18:34.781250,71.41,71.8
295130,2018-06-29 11:18:34.812500,71.58,71.8
295131,2018-06-29 11:18:34.843750,72.53,71.8
295132,2018-06-29 11:18:34.875000,72.51,71.8
295133,2018-06-29 11:18:34.906250,68.03,71.8
295134,2018-06-29 11:18:34.937500,59.24,71.8
295135,2018-06-29 11:18:34.968750,50.45,71.8
295136,2018-06-29 11:18:35.000000,44.26,71.8
295137,2018-06-29 11:18:35.031250,38.63,71.8
295138,2018-06-29 11:18:35.062500,31.16,71.8
295139,2018-06-29 11:18:35.093750,23.27,71.8
295140,2018-06-29 11:18:35.125000,17.56,71.8
295141,2018-06-29 11:18:35.156250,12.91,71.8
295142,2018-06-29 11:18:35.187500,5.82,71.8
295143,2018-06-29 11:18:35.218750,-3.9,71.8
295144,2018-06-29 11:18:35.250000,-12.7,71.8
295145,2018-06-29 11:18:35.281250,-19.81,71.8
295146,2018-06-29 11:18:35.312500,-29.24,71.8
295147,2018-06-29 11:18:35.343750,-42.93,71.8
295148,2018-06-29 11:18:35.375000,-56.88,71.8
295149,2018-06-29 11:18:35.406250,-67.08,71.8
295150,2018-06-29 11:18:35.437500,-75.22,71.8
295151,2018-06-29 11:18:35.468750,-86.45,71.8
295152,2018-06-29 11:18:35.500000,-103.79,71.8
295153,2018-06-29 11:18:35.531250,-121.1,71.3
295154,2018-06-29 11:18:35.562500,-121.2,71.3
295155,2018-06-29 11:18:35.593750,-91.33,71.3
295156,2018-06-29 11:18:35.625000,-41.44,71.3
295157,2018-06-29 11:18:35.656250,4.29,71.3
295158,2018-06-29 11:18:35.687500,32.36,71.3
295159,2018-06-29 11:18:35.718750,45.81,71.3
295160,2018-06-29 11:18:35.750000,51.55,71.3
295161,2018-06-29 11:18:35.781250,53.31,71.3
295162,2018-06-29 11:18:35.812500,53.54,71.3
295163,2018-06-29 11:18:35.843750,54.27,71.3
295164,2018-06-29 11:18:35.875000,55.79,71.3
295165,2018-06-29 11:18:35.906250,57.47,71.3
295166,2018-06-29 11:18:35.937500,59.22,71.3
295167,2018-06-29 11:18:35.968750,60.65,71.3
295168,2018-06-29 11:18:36.000000,59.48,71.3
295169,2018-06-29 11:18:36.031250,53.53,71.3
295170,2018-06-29 11:18:36.062500,44.41,71.3
295171,2018-06-29 11:18:36.093750,36.03,71.3
295172,2018-06-29 11:18:36.125000,29.72,71.3
295173,2018-06-29 11:18:36.156250,23.77,71.3
295174,2018-06-29 11:18:36.187500,17.4,71.3
295175,2018-06-29 11:18:36.218750,12.18,71.3
295176,2018-06-29 11:18:36.250000,8.66,71.3
295177,2018-06-29 11:18:36.281250,4.74,71.3
295178,2018-06-29 11:18:36.312500,-1.52,71.3
295179,2018-06-29 11:18:36.343750,-9.4,71.3
295180,2018-06-29 11:18:36.375000,-17.84,71.3
295181,2018-06-29 11:18:36.406250,-28.09,71.3
295182,2018-06-29 11:18:36.437500,-41.33,71.3
295183,2018-06-29 11:18:36.468750,-55.17,71.3
295184,2018-06-29 11:18:36.500000,-66.25,71.3
295185,2018-06-29 11:18:36.531250,-75.13,70.8
295186,2018-06-29 11:18:36.562500,-86.12,70.8
295187,2018-06-29 11:18:36.593750,-102.07,70.8
295188,2018-06-29 11:18:36.625000,-117.4,70.8
295189,2018-06-29 11:18:36.656250,-116.3,70.8
295190,2018-06-29 11:18:36.687500,-86.41,70.8
295191,2018-06-29 11:18:36.718750,-36.32,70.8
295192,2018-06-29 11:18:36.750000,10.4,70.8
295193,2018-06-29 11:18:36.781250,39.24,70.8
295194,2018-06-29 11:18:36.812500,52.67,70.8
295195,2018-06-29 11:18:36.843750,57.25,70.8
295196,2018-06-29 11:18:36.875000,56.38,70.8
295197,2018-06-29 11:18:36.906250,53.88,70.8
295198,2018-06-29 11:18:36.937500,53.86,70.8
295199,2018-06-29 11:18:36.968750,56.29,70.8
295200,2018-06-29 11:18:37.000000,58.41,70.8
295201,2018-06-29 11:18:37.031250,59.56,70.8
295202,2018-06-29 11:18:37.062500,60.36,70.8
295203,2018-06-29 11:18:37.093750,59.42,70.8
295204,2018-06-29 11:18:37.125000,54.76,70.8
295205,2018-06-29 11:18:37.156250,46.98,70.8
295206,2018-06-29 11:18:37.187500,38.61,70.8
295207,2018-06-29 11:18:37.218750,31.42,70.8
295208,2018-06-29 11:18:37.250000,25.11,70.8
295209,2018-06-29 11:18:37.281250,18.32,70.8
295210,2018-06-29 11:18:37.312500,10.87,70.8
295211,2018-06-29 11:18:37.343750,3.49,70.8
295212,2018-06-29 11:18:37.375000,-4.07,70.8
295213,2018-06-29 11:18:37.406250,-12.28,70.8
295214,2018-06-29 11:18:37.437500,-20.23,70.8
295215,2018-06-29 11:18:37.468750,-27.65,70.8
295216,2018-06-29 11:18:37.500000,-36.58,70.8
295217,2018-06-29 11:18:37.531250,-48.04,70.3
295218,2018-06-29 11:18:37.562500,-59.79,70.3
295219,2018-06-29 11:18:37.593750,-69.58,70.3
295220,2018-06-29 11:18:37.625000,-78.83,70.3
295221,2018-06-29 11:18:37.656250,-91.5,70.3
295222,2018-06-29 11:18:37.687500,-108.47,70.3
295223,2018-06-29 11:18:37.718750,-119.66,70.3
295224,2018-06-29 11:18:37.750000,-107.25,70.3
295225,2018-06-29 11:18:37.781250,-65.99,70.3
295226,2018-06-29 11:18:37.812500,-14.07,70.3
295227,2018-06-29 11:18:37.843750,25.82,70.3
295228,2018-06-29 11:18:37.875000,47.47,70.3
295229,2018-06-29 11:18:37.906250,56.46,70.3
295230,2018-06-29 11:18:37.937500,57.68,70.3
295231,2018-06-29 11:18:37.968750,55.16,70.3
295232,2018-06-29 11:18:38.000000,53.89,70.3
295233,2018-06-29 11:18:38.031250,55.88,70.3
295234,2018-06-29 11:18:38.062500,58.69,70.3
295235,2018-06-29 11:18:38.093750,59.99,70.3
295236,2018-06-29 11:18:38.125000,60.62,70.3
295237,2018-06-29 11:18:38.156250,61.16,70.3
295238,2018-06-29 11:18:38.187500,59.32,70.3
295239,2018-06-29 11:18:38.218750,53.39,70.3
295240,2018-06-29 11:18:38.250000,45.45,70.3
295241,2018-06-29 11:18:38.281250,38.47,70.3
295242,2018-06-29 11:18:38.312500,32.38,70.3
295243,2018-06-29 11:18:38.343750,25.55,70.3
295244,2018-06-29 11:18:38.375000,18.19,70.3
295245,2018-06-29 11:18:38.406250,11.59,70.3
295246,2018-06-29 11:18:38.437500,5.13,70.3
295247,2018-06-29 11:18:38.468750,-2.67,70.3
295248,2018-06-29 11:18:38.500000,-11.11,70.3
295249,2018-06-29 11:18:38.531250,-18.41,69.78
295250,2018-06-29 11:18:38.562500,-25.36,69.78
295251,2018-06-29 11:18:38.593750,-35.01,69.78
295252,2018-06-29 11:18:38.625000,-48.31,69.78
295253,2018-06-29 11:18:38.656250,-61.78,69.78
295254,2018-06-29 11:18:38.687500,-71.53,69.78
295255,2018-06-29 11:18:38.718750,-78.38,69.78
295256,2018-06-29 11:18:38.750000,-87.47,69.78
295257,2018-06-29 11:18:38.781250,-102.49,69.78
295258,2018-06-29 11:18:38.812500,-117.58,69.78
295259,2018-06-29 11:18:38.843750,-115.72,69.78
295260,2018-06-29 11:18:38.875000,-83.99,69.78
295261,2018-06-29 11:18:38.906250,-32.05,69.78
295262,2018-06-29 11:18:38.937500,15.51,69.78
295263,2018-06-29 11:18:38.968750,44.18,69.78
295264,2018-06-29 11:18:39.000000,56.71,69.78
295265,2018-06-29 11:18:39.031250,60.01,69.78
295266,2018-06-29 11:18:39.062500,57.97,69.78
295267,2018-06-29 11:18:39.093750,54.8,69.78
295268,2018-06-29 11:18:39.125000,54.58,69.78
295269,2018-06-29 11:18:39.156250,57.24,69.78
295270,2018-06-29 11:18:39.187500,60.33,69.78
295271,2018-06-29 11:18:39.218750,63.06,69.78
295272,2018-06-29 11:18:39.250000,64.91,69.78
295273,2018-06-29 11:18:39.281250,63.7,69.78
295274,2018-06-29 11:18:39.312500,58.15,69.78
295275,2018-06-29 11:18:39.343750,49.89,69.78
295276,2018-06-29 11:18:39.375000,41.6,69.78
295277,2018-06-29 11:18:39.406250,34.66,69.78
295278,2018-06-29 11:18:39.437500,28.67,69.78
295279,2018-06-29 11:18:39.468750,22.63,69.78
295280,2018-06-29 11:18:39.500000,16.29,69.78
295281,2018-06-29 11:18:39.531250,9.54,69.25
295282,2018-06-29 11:18:39.562500,1.62,69.25
295283,2018-06-29 11:18:39.593750,-7.45,69.25
295284,2018-06-29 11:18:39.625000,-16.45,69.25
295285,2018-06-29 11:18:39.656250,-25.81,69.25
295286,2018-06-29 11:18:39.687500,-37.64,69.25
295287,2018-06-29 11:18:39.718750,-51.33,69.25
295288,2018-06-29 11:18:39.750000,-63.07,69.25
295289,2018-06-29 11:18:39.781250,-71.57,69.25
295290,2018-06-29 11:18:39.812500,-80.59,69.25
295291,2018-06-29 11:18:39.843750,-94.53,69.25
295292,2018-06-29 11:18:39.875000,-111.11,69.25
295293,2018-06-29 11:18:39.906250,-116.58,69.25
295294,2018-06-29 11:18:39.937500,-95.04,69.25
295295,2018-06-29 11:18:39.968750,-48.52,69.25
295296,2018-06-29 11:18:40.000000,0.86,69.25
295297,2018-06-29 11:18:40.031250,33.96,69.25
295298,2018-06-29 11:18:40.062500,49.4,69.25
295299,2018-06-29 11:18:40.093750,54.17,69.25
295300,2018-06-29 11:18:40.125000,52.9,69.25
295301,2018-06-29 11:18:40.156250,49.41,69.25
295302,2018-06-29 11:18:40.187500,48.39,69.25
295303,2018-06-29 11:18:40.218750,50.99,69.25
295304,2018-06-29 11:18:40.250000,54.09,69.25
295305,2018-06-29 11:18:40.281250,55.74,69.25
295306,2018-06-29 11:18:40.312500,56.92,69.25
295307,2018-06-29 11:18:40.343750,57.21,69.25
295308,2018-06-29 11:18:40.375000,53.96,69.25
295309,2018-06-29 11:18:40.406250,46.71,69.25
295310,2018-06-29 11:18:40.437500,38.2,69.25
295311,2018-06-29 11:18:40.468750,30.71,69.25
295312,2018-06-29 11:18:40.500000,24.14,69.25
295313,2018-06-29 11:18:40.531250,17.46,68.72
295314,2018-06-29 11:18:40.562500,10.12,68.72
295315,2018-06-29 11:18:40.593750,2.33,68.72
295316,2018-06-29 11:18:40.625000,-5.25,68.72
295317,2018-06-29 11:18:40.656250,-12.48,68.72
295318,2018-06-29 11:18:40.687500,-20.7,68.72
295319,2018-06-29 11:18:40.718750,-31.73,68.72
295320,2018-06-29 11:18:40.750000,-45.18,68.72
295321,2018-06-29 11:18:40.781250,-58.11,68.72
295322,2018-06-29 11:18:40.812500,-67.74,68.72
295323,2018-06-29 11:18:40.843750,-74.91,68.72
295324,2018-06-29 11:18:40.875000,-84.35,68.72
295325,2018-06-29 11:18:40.906250,-100.04,68.72
295326,2018-06-29 11:18:40.937500,-116.18,68.72
295327,2018-06-29 11:18:40.968750,-115.22,68.72
295328,2018-06-29 11:18:41.000000,-84.56,68.72
295329,2018-06-29 11:18:41.031250,-34.41,68.72
295330,2018-06-29 11:18:41.062500,11.36,68.72
295331,2018-06-29 11:18:41.093750,39.55,68.72
295332,2018-06-29 11:18:41.125000,53.04,68.72
295333,2018-06-29 11:18:41.156250,57.71,68.72
295334,2018-06-29 11:18:41.187500,56.58,68.72
295335,2018-06-29 11:18:41.218750,53.8,68.72
295336,2018-06-29 11:18:41.250000,53.94,68.72
295337,2018-06-29 11:18:41.281250,57.06,68.72
295338,2018-06-29 11:18:41.312500,59.83,68.72
295339,2018-06-29 11:18:41.343750,61.08,68.72
295340,2018-06-29 11:18:41.375000,61.64,68.72
295341,2018-06-29 11:18:41.406250,60.49,68.72
295342,2018-06-29 11:18:41.437500,55.67,68.72
295343,2018-06-29 11:18:41.468750,47.37,68.72
295344,2018-06-29 11:18:41.500000,37.87,68.72
295345,2018-06-29 11:18:41.531250,29.7,68.22
295346,2018-06-29 11:18:41.562500,23.47,68.22
295347,2018-06-29 11:18:41.593750,16.89,68.22
295348,2018-06-29 11:18:41.625000,7.68,68.22
295349,2018-06-29 11:18:41.656250,-2.69,68.22
295350,2018-06-29 11:18:41.687500,-11.26,68.22
295351,2018-06-29 11:18:41.718750,-18.09,68.22
295352,2018-06-29 11:18:41.750000,-26.03,68.22
295353,2018-06-29 11:18:41.781250,-37.13,68.22
295354,2018-06-29 11:18:41.812500,-50.36,68.22
295355,2018-06-29 11:18:41.843750,-62.44,68.22
295356,2018-06-29 11:18:41.875000,-71.69,68.22
295357,2018-06-29 11:18:41.906250,-80.96,68.22
295358,2018-06-29 11:18:41.937500,-94.84,68.22
295359,2018-06-29 11:18:41.968750,-112.24,68.22
295360,2018-06-29 11:18:42.000000,-120.55,68.22
295361,2018-06-29 11:18:42.031250,-103.06,68.22
295362,2018-06-29 11:18:42.062500,-58.52,68.22
295363,2018-06-29 11:18:42.093750,-6.92,68.22
295364,2018-06-29 11:18:42.125000,30.69,68.22
295365,2018-06-29 11:18:42.156250,50.06,68.22
295366,2018-06-29 11:18:42.187500,57.23,68.22
295367,2018-06-29 11:18:42.218750,56.87,68.22
295368,2018-06-29 11:18:42.250000,52.88,68.22
295369,2018-06-29 11:18:42.281250,50.77,68.22
295370,2018-06-29 11:18:42.312500,53.34,68.22
295371,2018-06-29 11:18:42.343750,58.21,68.22
295372,2018-06-29 11:18:42.375000,62.11,68.22
295373,2018-06-29 11:18:42.406250,64.4,68.22
295374,2018-06-29 11:18:42.437500,65.04,68.22
295375,2018-06-29 11:18:42.468750,62.39,68.22
295376,2018-06-29 11:18:42.500000,55.46,68.22
295377,2018-06-29 11:18:42.531250,46.15,67.72
295378,2018-06-29 11:18:42.562500,37.8,67.72
295379,2018-06-29 11:18:42.593750,31.52,67.72
295380,2018-06-29 11:18:42.625000,25.06,67.72
295381,2018-06-29 11:18:42.656250,15.7,67.72
295382,2018-06-29 11:18:42.687500,4.31,67.72
295383,2018-06-29 11:18:42.718750,-5.58,67.72
295384,2018-06-29 11:18:42.750000,-13.17,67.72
295385,2018-06-29 11:18:42.781250,-21.82,67.72
295386,2018-06-29 11:18:42.812500,-33.9,67.72
295387,2018-06-29 11:18:42.843750,-47.27,67.72
295388,2018-06-29 11:18:42.875000,-58.65,67.72
295389,2018-06-29 11:18:42.906250,-68.17,67.72
295390,2018-06-29 11:18:42.937500,-78.76,67.72
295391,2018-06-29 11:18:42.968750,-93.17,67.72
295392,2018-06-29 11:18:43.000000,-108.92,67.72
295393,2018-06-29 11:18:43.031250,-113.29,67.72
295394,2018-06-29 11:18:43.062500,-91.56,67.72
295395,2018-06-29 11:18:43.093750,-46.48,67.72
295396,2018-06-29 11:18:43.125000,0.45,67.72
295397,2018-06-29 11:18:43.156250,31.67,67.72
295398,2018-06-29 11:18:43.187500,46.11,67.72
295399,2018-06-29 11:18:43.218750,49.08,67.72
295400,2018-06-29 11:18:43.250000,44.54,67.72
295401,2018-06-29 11:18:43.281250,38.28,67.72
295402,2018-06-29 11:18:43.312500,36.93,67.72
295403,2018-06-29 11:18:43.343750,41.5,67.72
295404,2018-06-29 11:18:43.375000,47.15,67.72
295405,2018-06-29 11:18:43.406250,49.93,67.72
295406,2018-06-29 11:18:43.437500,49.95,67.72
295407,2018-06-29 11:18:43.468750,47.67,67.72
295408,2018-06-29 11:18:43.500000,41.86,67.72
295409,2018-06-29 11:18:43.531250,32.26,67.25
295410,2018-06-29 11:18:43.562500,20.94,67.25
295411,2018-06-29 11:18:43.593750,10.07,67.25
295412,2018-06-29 11:18:43.625000,0.68,67.25
295413,2018-06-29 11:18:43.656250,-7.53,67.25
295414,2018-06-29 11:18:43.687500,-16.63,67.25
295415,2018-06-29 11:18:43.718750,-28.54,67.25
295416,2018-06-29 11:18:43.750000,-42.16,67.25
295417,2018-06-29 11:18:43.781250,-54.23,67.25
295418,2018-06-29 11:18:43.812500,-63.73,67.25
295419,2018-06-29 11:18:43.843750,-74.13,67.25
295420,2018-06-29 11:18:43.875000,-90.05,67.25
295421,2018-06-29 11:18:43.906250,-108.88,67.25
295422,2018-06-29 11:18:43.937500,-115.23,67.25
295423,2018-06-29 11:18:43.968750,-92.83,67.25
295424,2018-06-29 11:18:44.000000,-45.54,67.25
295425,2018-06-29 11:18:44.031250,3.82,67.25
295426,2018-06-29 11:18:44.062500,37.52,67.25
295427,2018-06-29 11:18:44.093750,54.9,67.25
295428,2018-06-29 11:18:44.125000,62.35,67.25
295429,2018-06-29 11:18:44.156250,64.1,67.25
295430,2018-06-29 11:18:44.187500,63.33,67.25
295431,2018-06-29 11:18:44.218750,63.05,67.25
295432,2018-06-29 11:18:44.250000,63.98,67.25
295433,2018-06-29 11:18:44.281250,64.89,67.25
295434,2018-06-29 11:18:44.312500,65.24,67.25
295435,2018-06-29 11:18:44.343750,64.92,67.25
295436,2018-06-29 11:18:44.375000,62.37,67.25
295437,2018-06-29 11:18:44.406250,55.87,67.25
295438,2018-06-29 11:18:44.437500,45.88,67.25
295439,2018-06-29 11:18:44.468750,34.48,67.25
295440,2018-06-29 11:18:44.500000,23.07,67.25
295441,2018-06-29 11:18:44.531250,12.12,66.8
295442,2018-06-29 11:18:44.562500,1.6,66.8
295443,2018-06-29 11:18:44.593750,-9.24,66.8
295444,2018-06-29 11:18:44.625000,-21.77,66.8
295445,2018-06-29 11:18:44.656250,-36.62,66.8
295446,2018-06-29 11:18:44.687500,-51.86,66.8
295447,2018-06-29 11:18:44.718750,-64.53,66.8
295448,2018-06-29 11:18:44.750000,-74.85,66.8
295449,2018-06-29 11:18:44.781250,-87.53,66.8
295450,2018-06-29 11:18:44.812500,-106.9,66.8
295451,2018-06-29 11:18:44.843750,-127.21,66.8
295452,2018-06-29 11:18:44.875000,-130.49,66.8
295453,2018-06-29 11:18:44.906250,-102.57,66.8
295454,2018-06-29 11:18:44.937500,-51.31,66.8
295455,2018-06-29 11:18:44.968750,0.13,66.8
295456,2018-06-29 11:18:45.000000,36.25,66.8
295457,2018-06-29 11:18:45.031250,57.31,66.8
295458,2018-06-29 11:18:45.062500,68.88,66.8
295459,2018-06-29 11:18:45.093750,74.21,66.8
295460,2018-06-29 11:18:45.125000,75.7,66.8
295461,2018-06-29 11:18:45.156250,76.24,66.8
295462,2018-06-29 11:18:45.187500,77.23,66.8
295463,2018-06-29 11:18:45.218750,78.03,66.8
295464,2018-06-29 11:18:45.250000,78.5,66.8
295465,2018-06-29 11:18:45.281250,79.19,66.8
295466,2018-06-29 11:18:45.312500,78.45,66.8
295467,2018-06-29 11:18:45.343750,73.35,66.8
295468,2018-06-29 11:18:45.375000,64.01,66.8
295469,2018-06-29 11:18:45.406250,54.3,66.8
295470,2018-06-29 11:18:45.437500,47.26,66.8
295471,2018-06-29 11:18:45.468750,41.9,66.8
295472,2018-06-29 11:18:45.500000,35.18,66.8
295473,2018-06-29 11:18:45.531250,26.15,66.35
295474,2018-06-29 11:18:45.562500,17.27,66.35
295475,2018-06-29 11:18:45.593750,10.93,66.35
295476,2018-06-29 11:18:45.625000,5.61,66.35
295477,2018-06-29 11:18:45.656250,-2.64,66.35
295478,2018-06-29 11:18:45.687500,-14.71,66.35
295479,2018-06-29 11:18:45.718750,-26.87,66.35
295480,2018-06-29 11:18:45.750000,-36.19,66.35
295481,2018-06-29 11:18:45.781250,-45.12,66.35
295482,2018-06-29 11:18:45.812500,-57.71,66.35
295483,2018-06-29 11:18:45.843750,-72.81,66.35
295484,2018-06-29 11:18:45.875000,-85.47,66.35
295485,2018-06-29 11:18:45.906250,-94.58,66.35
295486,2018-06-29 11:18:45.937500,-105.08,66.35
295487,2018-06-29 11:18:45.968750,-122.01,66.35
295488,2018-06-29 11:18:46.000000,-141.45,66.35
295489,2018-06-29 11:18:46.031250,-146.82,66.35
295490,2018-06-29 11:18:46.062500,-121.27,66.35
295491,2018-06-29 11:18:46.093750,-68.27,66.35
295492,2018-06-29 11:18:46.125000,-11.26,66.35
295493,2018-06-29 11:18:46.156250,29.98,66.35
295494,2018-06-29 11:18:46.187500,53.07,66.35
295495,2018-06-29 11:18:46.218750,64.85,66.35
295496,2018-06-29 11:18:46.250000,70.72,66.35
295497,2018-06-29 11:18:46.281250,73.62,66.35
295498,2018-06-29 11:18:46.312500,75.69,66.35
295499,2018-06-29 11:18:46.343750,77.95,66.35
295500,2018-06-29 11:18:46.375000,79.97,66.35
295501,2018-06-29 11:18:46.406250,81.57,66.35
295502,2018-06-29 11:18:46.437500,83.08,66.35
295503,2018-06-29 11:18:46.468750,82.82,66.35
295504,2018-06-29 11:18:46.500000,77.91,66.35
295505,2018-06-29 11:18:46.531250,68.43,65.93
295506,2018-06-29 11:18:46.562500,57.57,65.93
295507,2018-06-29 11:18:46.593750,48.01,65.93
295508,2018-06-29 11:18:46.625000,39.89,65.93
295509,2018-06-29 11:18:46.656250,32.26,65.93
295510,2018-06-29 11:18:46.687500,24.94,65.93
295511,2018-06-29 11:18:46.718750,17.97,65.93
295512,2018-06-29 11:18:46.750000,10.23,65.93
295513,2018-06-29 11:18:46.781250,1.09,65.93
295514,2018-06-29 11:18:46.812500,-8.01,65.93
295515,2018-06-29 11:18:46.843750,-16.6,65.93
295516,2018-06-29 11:18:46.875000,-27.14,65.93
295517,2018-06-29 11:18:46.906250,-41.0,65.93
295518,2018-06-29 11:18:46.937500,-55.13,65.93
295519,2018-06-29 11:18:46.968750,-65.88,65.93
295520,2018-06-29 11:18:47.000000,-74.02,65.93
295521,2018-06-29 11:18:47.031250,-84.53,65.93
295522,2018-06-29 11:18:47.062500,-100.55,65.93
295523,2018-06-29 11:18:47.093750,-114.89,65.93
295524,2018-06-29 11:18:47.125000,-110.33,65.93
295525,2018-06-29 11:18:47.156250,-77.01,65.93
295526,2018-06-29 11:18:47.187500,-27.56,65.93
295527,2018-06-29 11:18:47.218750,14.84,65.93
295528,2018-06-29 11:18:47.250000,39.2,65.93
295529,2018-06-29 11:18:47.281250,48.65,65.93
295530,2018-06-29 11:18:47.312500,48.46,65.93
295531,2018-06-29 11:18:47.343750,42.94,65.93
295532,2018-06-29 11:18:47.375000,38.15,65.93
295533,2018-06-29 11:18:47.406250,38.61,65.93
295534,2018-06-29 11:18:47.437500,42.83,65.93
295535,2018-06-29 11:18:47.468750,46.4,65.93
295536,2018-06-29 11:18:47.500000,48.03,65.93
295537,2018-06-29 11:18:47.531250,48.91,65.52
295538,2018-06-29 11:18:47.562500,47.53,65.52
295539,2018-06-29 11:18:47.593750,40.71,65.52
295540,2018-06-29 11:18:47.625000,29.88,65.52
295541,2018-06-29 11:18:47.656250,20.64,65.52
295542,2018-06-29 11:18:47.687500,15.01,65.52
295543,2018-06-29 11:18:47.718750,9.09,65.52
295544,2018-06-29 11:18:47.750000,-0.07,65.52
295545,2018-06-29 11:18:47.781250,-10.16,65.52
295546,2018-06-29 11:18:47.812500,-17.92,65.52
295547,2018-06-29 11:18:47.843750,-24.66,65.52
295548,2018-06-29 11:18:47.875000,-34.98,65.52
295549,2018-06-29 11:18:47.906250,-50.1,65.52
295550,2018-06-29 11:18:47.937500,-65.64,65.52
295551,2018-06-29 11:18:47.968750,-77.13,65.52
295552,2018-06-29 11:18:48.000000,-85.9,65.52
295553,2018-06-29 11:18:48.031250,-97.83,65.52
295554,2018-06-29 11:18:48.062500,-115.64,65.52
295555,2018-06-29 11:18:48.093750,-129.75,65.52
295556,2018-06-29 11:18:48.125000,-120.97,65.52
295557,2018-06-29 11:18:48.156250,-81.33,65.52
295558,2018-06-29 11:18:48.187500,-27.5,65.52
295559,2018-06-29 11:18:48.218750,16.89,65.52
295560,2018-06-29 11:18:48.250000,43.83,65.52
295561,2018-06-29 11:18:48.281250,58.05,65.52
295562,2018-06-29 11:18:48.312500,64.12,65.52
295563,2018-06-29 11:18:48.343750,65.3,65.52
295564,2018-06-29 11:18:48.375000,65.8,65.52
295565,2018-06-29 11:18:48.406250,67.55,65.52
295566,2018-06-29 11:18:48.437500,68.96,65.52
295567,2018-06-29 11:18:48.468750,68.88,65.52
295568,2018-06-29 11:18:48.500000,68.72,65.52
295569,2018-06-29 11:18:48.531250,69.27,65.05
295570,2018-06-29 11:18:48.562500,68.08,65.05
295571,2018-06-29 11:18:48.593750,61.97,65.05
295572,2018-06-29 11:18:48.625000,51.37,65.05
295573,2018-06-29 11:18:48.656250,40.08,65.05
295574,2018-06-29 11:18:48.687500,31.07,65.05
295575,2018-06-29 11:18:48.718750,23.4,65.05
295576,2018-06-29 11:18:48.750000,14.04,65.05
295577,2018-06-29 11:18:48.781250,2.32,65.05
295578,2018-06-29 11:18:48.812500,-8.87,65.05
295579,2018-06-29 11:18:48.843750,-17.37,65.05
295580,2018-06-29 11:18:48.875000,-25.62,65.05
295581,2018-06-29 11:18:48.906250,-37.78,65.05
295582,2018-06-29 11:18:48.937500,-53.59,65.05
295583,2018-06-29 11:18:48.968750,-68.33,65.05
295584,2018-06-29 11:18:49.000000,-79.05,65.05
295585,2018-06-29 11:18:49.031250,-88.71,65.05
295586,2018-06-29 11:18:49.062500,-103.46,65.05
295587,2018-06-29 11:18:49.093750,-123.72,65.05
295588,2018-06-29 11:18:49.125000,-135.68,65.05
295589,2018-06-29 11:18:49.156250,-119.03,65.05
295590,2018-06-29 11:18:49.187500,-71.13,65.05
295591,2018-06-29 11:18:49.218750,-14.29,65.05
295592,2018-06-29 11:18:49.250000,28.23,65.05
295593,2018-06-29 11:18:49.281250,52.33,65.05
295594,2018-06-29 11:18:49.312500,65.12,65.05
295595,2018-06-29 11:18:49.343750,70.96,65.05
295596,2018-06-29 11:18:49.375000,72.1,65.05
295597,2018-06-29 11:18:49.406250,72.41,65.05
295598,2018-06-29 11:18:49.437500,73.98,65.05
295599,2018-06-29 11:18:49.468750,75.23,65.05
295600,2018-06-29 11:18:49.500000,75.25,65.05
295601,2018-06-29 11:18:49.531250,75.45,64.58
295602,2018-06-29 11:18:49.562500,75.24,64.58
295603,2018-06-29 11:18:49.593750,71.17,64.58
295604,2018-06-29 11:18:49.625000,62.14,64.58
295605,2018-06-29 11:18:49.656250,51.28,64.58
295606,2018-06-29 11:18:49.687500,41.6,64.58
295607,2018-06-29 11:18:49.718750,32.81,64.58
295608,2018-06-29 11:18:49.750000,23.7,64.58
295609,2018-06-29 11:18:49.781250,14.84,64.58
295610,2018-06-29 11:18:49.812500,6.74,64.58
295611,2018-06-29 11:18:49.843750,-1.65,64.58
295612,2018-06-29 11:18:49.875000,-10.5,64.58
295613,2018-06-29 11:18:49.906250,-18.65,64.58
295614,2018-06-29 11:18:49.937500,-26.82,64.58
295615,2018-06-29 11:18:49.968750,-37.58,64.58
295616,2018-06-29 11:18:50.000000,-51.08,64.58
295617,2018-06-29 11:18:50.031250,-64.0,64.58
295618,2018-06-29 11:18:50.062500,-73.75,64.58
295619,2018-06-29 11:18:50.093750,-81.98,64.58
295620,2018-06-29 11:18:50.125000,-93.49,64.58
295621,2018-06-29 11:18:50.156250,-110.73,64.58
295622,2018-06-29 11:18:50.187500,-125.57,64.58
295623,2018-06-29 11:18:50.218750,-119.54,64.58
295624,2018-06-29 11:18:50.250000,-82.47,64.58
295625,2018-06-29 11:18:50.281250,-28.66,64.58
295626,2018-06-29 11:18:50.312500,16.72,64.58
295627,2018-06-29 11:18:50.343750,42.81,64.58
295628,2018-06-29 11:18:50.375000,54.79,64.58
295629,2018-06-29 11:18:50.406250,58.66,64.58
295630,2018-06-29 11:18:50.437500,56.89,64.58
295631,2018-06-29 11:18:50.468750,53.33,64.58
295632,2018-06-29 11:18:50.500000,52.44,64.58
295633,2018-06-29 11:18:50.531250,54.63,64.13
295634,2018-06-29 11:18:50.562500,57.03,64.13
295635,2018-06-29 11:18:50.593750,57.87,64.13
295636,2018-06-29 11:18:50.625000,56.66,64.13
295637,2018-06-29 11:18:50.656250,52.24,64.13
295638,2018-06-29 11:18:50.687500,43.86,64.13
295639,2018-06-29 11:18:50.718750,32.66,64.13
295640,2018-06-29 11:18:50.750000,20.5,64.13
295641,2018-06-29 11:18:50.781250,8.53,64.13
295642,2018-06-29 11:18:50.812500,-2.38,64.13
295643,2018-06-29 11:18:50.843750,-11.83,64.13
295644,2018-06-29 11:18:50.875000,-21.15,64.13
295645,2018-06-29 11:18:50.906250,-32.36,64.13
295646,2018-06-29 11:18:50.937500,-45.07,64.13
295647,2018-06-29 11:18:50.968750,-56.35,64.13
295648,2018-06-29 11:18:51.000000,-65.01,64.13
295649,2018-06-29 11:18:51.031250,-74.05,64.13
295650,2018-06-29 11:18:51.062500,-88.39,64.13
295651,2018-06-29 11:18:51.093750,-108.0,64.13
295652,2018-06-29 11:18:51.125000,-120.48,64.13
295653,2018-06-29 11:18:51.156250,-106.97,64.13
295654,2018-06-29 11:18:51.187500,-63.49,64.13
295655,2018-06-29 11:18:51.218750,-9.4,64.13
295656,2018-06-29 11:18:51.250000,32.49,64.13
295657,2018-06-29 11:18:51.281250,55.9,64.13
295658,2018-06-29 11:18:51.312500,66.7,64.13
295659,2018-06-29 11:18:51.343750,70.36,64.13
295660,2018-06-29 11:18:51.375000,69.69,64.13
295661,2018-06-29 11:18:51.406250,67.48,64.13
295662,2018-06-29 11:18:51.437500,65.88,64.13
295663,2018-06-29 11:18:51.468750,65.17,64.13
295664,2018-06-29 11:18:51.500000,64.93,64.13
295665,2018-06-29 11:18:51.531250,64.35,63.68
295666,2018-06-29 11:18:51.562500,61.62,63.68
295667,2018-06-29 11:18:51.593750,55.19,63.68
295668,2018-06-29 11:18:51.625000,45.42,63.68
295669,2018-06-29 11:18:51.656250,33.61,63.68
295670,2018-06-29 11:18:51.687500,20.84,63.68
295671,2018-06-29 11:18:51.718750,8.18,63.68
295672,2018-06-29 11:18:51.750000,-3.62,63.68
295673,2018-06-29 11:18:51.781250,-15.18,63.68
295674,2018-06-29 11:18:51.812500,-28.04,63.68
295675,2018-06-29 11:18:51.843750,-42.46,63.68
295676,2018-06-29 11:18:51.875000,-56.29,63.68
295677,2018-06-29 11:18:51.906250,-67.26,63.68
295678,2018-06-29 11:18:51.937500,-76.6,63.68
295679,2018-06-29 11:18:51.968750,-89.07,63.68
295680,2018-06-29 11:18:52.000000,-107.89,63.68
295681,2018-06-29 11:18:52.031250,-126.19,63.68
295682,2018-06-29 11:18:52.062500,-125.25,63.68
295683,2018-06-29 11:18:52.093750,-91.61,63.68
295684,2018-06-29 11:18:52.125000,-35.86,63.68
295685,2018-06-29 11:18:52.156250,16.3,63.68
295686,2018-06-29 11:18:52.187500,50.09,63.68
295687,2018-06-29 11:18:52.218750,67.99,63.68
295688,2018-06-29 11:18:52.250000,76.3,63.68
295689,2018-06-29 11:18:52.281250,78.29,63.68
295690,2018-06-29 11:18:52.312500,77.09,63.68
295691,2018-06-29 11:18:52.343750,75.84,63.68
295692,2018-06-29 11:18:52.375000,75.24,63.68
295693,2018-06-29 11:18:52.406250,74.43,63.68
295694,2018-06-29 11:18:52.437500,73.67,63.68
295695,2018-06-29 11:18:52.468750,73.21,63.68
295696,2018-06-29 11:18:52.500000,70.61,63.68
295697,2018-06-29 11:18:52.531250,62.44,63.18
295698,2018-06-29 11:18:52.562500,49.57,63.18
295699,2018-06-29 11:18:52.593750,37.29,63.18
295700,2018-06-29 11:18:52.625000,28.43,63.18
295701,2018-06-29 11:18:52.656250,19.66,63.18
295702,2018-06-29 11:18:52.687500,7.65,63.18
295703,2018-06-29 11:18:52.718750,-5.1,63.18
295704,2018-06-29 11:18:52.750000,-15.03,63.18
295705,2018-06-29 11:18:52.781250,-24.06,63.18
295706,2018-06-29 11:18:52.812500,-36.19,63.18
295707,2018-06-29 11:18:52.843750,-50.89,63.18
295708,2018-06-29 11:18:52.875000,-64.41,63.18
295709,2018-06-29 11:18:52.906250,-75.44,63.18
295710,2018-06-29 11:18:52.937500,-86.85,63.18
295711,2018-06-29 11:18:52.968750,-103.28,63.18
295712,2018-06-29 11:18:53.000000,-123.18,63.18
295713,2018-06-29 11:18:53.031250,-130.96,63.18
295714,2018-06-29 11:18:53.062500,-108.02,63.18
295715,2018-06-29 11:18:53.093750,-56.91,63.18
295716,2018-06-29 11:18:53.125000,-2.18,63.18
295717,2018-06-29 11:18:53.156250,35.88,63.18
295718,2018-06-29 11:18:53.187500,55.55,63.18
295719,2018-06-29 11:18:53.218750,63.37,63.18
295720,2018-06-29 11:18:53.250000,64.34,63.18
295721,2018-06-29 11:18:53.281250,62.19,63.18
295722,2018-06-29 11:18:53.312500,60.37,63.18
295723,2018-06-29 11:18:53.343750,60.45,63.18
295724,2018-06-29 11:18:53.375000,61.27,63.18
295725,2018-06-29 11:18:53.406250,61.0,63.18
295726,2018-06-29 11:18:53.437500,59.74,63.18
295727,2018-06-29 11:18:53.468750,57.73,63.18
295728,2018-06-29 11:18:53.500000,52.72,63.18
295729,2018-06-29 11:18:53.531250,42.8,62.73
295730,2018-06-29 11:18:53.562500,29.91,62.73
295731,2018-06-29 11:18:53.593750,17.6,62.73
295732,2018-06-29 11:18:53.625000,7.24,62.73
295733,2018-06-29 11:18:53.656250,-2.61,62.73
295734,2018-06-29 11:18:53.687500,-14.26,62.73
295735,2018-06-29 11:18:53.718750,-27.84,62.73
295736,2018-06-29 11:18:53.750000,-40.12,62.73
295737,2018-06-29 11:18:53.781250,-48.64,62.73
295738,2018-06-29 11:18:53.812500,-56.0,62.73
295739,2018-06-29 11:18:53.843750,-67.25,62.73
295740,2018-06-29 11:18:53.875000,-84.13,62.73
295741,2018-06-29 11:18:53.906250,-100.42,62.73
295742,2018-06-29 11:18:53.937500,-101.17,62.73
295743,2018-06-29 11:18:53.968750,-74.42,62.73
295744,2018-06-29 11:18:54.000000,-27.41,62.73
295745,2018-06-29 11:18:54.031250,17.87,62.73
295746,2018-06-29 11:18:54.062500,46.8,62.73
295747,2018-06-29 11:18:54.093750,59.92,62.73
295748,2018-06-29 11:18:54.125000,62.05,62.73
295749,2018-06-29 11:18:54.156250,56.8,62.73
295750,2018-06-29 11:18:54.187500,49.8,62.73
295751,2018-06-29 11:18:54.218750,47.07,62.73
295752,2018-06-29 11:18:54.250000,48.94,62.73
295753,2018-06-29 11:18:54.281250,50.48,62.73
295754,2018-06-29 11:18:54.312500,48.75,62.73
295755,2018-06-29 11:18:54.343750,45.47,62.73
295756,2018-06-29 11:18:54.375000,41.53,62.73
295757,2018-06-29 11:18:54.406250,33.75,62.73
295758,2018-06-29 11:18:54.437500,20.38,62.73
295759,2018-06-29 11:18:54.468750,5.89,62.73
295760,2018-06-29 11:18:54.500000,-4.82,62.73
295761,2018-06-29 11:18:54.531250,-13.89,62.33
295762,2018-06-29 11:18:54.562500,-26.76,62.33
295763,2018-06-29 11:18:54.593750,-43.34,62.33
295764,2018-06-29 11:18:54.625000,-58.05,62.33
295765,2018-06-29 11:18:54.656250,-68.05,62.33
295766,2018-06-29 11:18:54.687500,-76.71,62.33
295767,2018-06-29 11:18:54.718750,-89.77,62.33
295768,2018-06-29 11:18:54.750000,-108.38,62.33
295769,2018-06-29 11:18:54.781250,-121.78,62.33
295770,2018-06-29 11:18:54.812500,-111.27,62.33
295771,2018-06-29 11:18:54.843750,-70.43,62.33
295772,2018-06-29 11:18:54.875000,-16.66,62.33
295773,2018-06-29 11:18:54.906250,26.62,62.33
295774,2018-06-29 11:18:54.937500,51.8,62.33
295775,2018-06-29 11:18:54.968750,64.49,62.33
295776,2018-06-29 11:18:55.000000,69.9,62.33
295777,2018-06-29 11:18:55.031250,69.95,62.33
295778,2018-06-29 11:18:55.062500,67.35,62.33
295779,2018-06-29 11:18:55.093750,65.38,62.33
295780,2018-06-29 11:18:55.125000,64.81,62.33
295781,2018-06-29 11:18:55.156250,64.08,62.33
295782,2018-06-29 11:18:55.187500,62.15,62.33
295783,2018-06-29 11:18:55.218750,58.85,62.33
295784,2018-06-29 11:18:55.250000,53.29,62.33
295785,2018-06-29 11:18:55.281250,44.24,62.33
295786,2018-06-29 11:18:55.312500,32.11,62.33
295787,2018-06-29 11:18:55.343750,18.79,62.33
295788,2018-06-29 11:18:55.375000,6.2,62.33
295789,2018-06-29 11:18:55.406250,-4.88,62.33
295790,2018-06-29 11:18:55.437500,-15.42,62.33
295791,2018-06-29 11:18:55.468750,-27.36,62.33
295792,2018-06-29 11:18:55.500000,-41.22,62.33
295793,2018-06-29 11:18:55.531250,-54.75,61.93
295794,2018-06-29 11:18:55.562500,-65.67,61.93
295795,2018-06-29 11:18:55.593750,-75.45,61.93
295796,2018-06-29 11:18:55.625000,-88.75,61.93
295797,2018-06-29 11:18:55.656250,-107.99,61.93
295798,2018-06-29 11:18:55.687500,-125.89,61.93
295799,2018-06-29 11:18:55.718750,-124.86,61.93
295800,2018-06-29 11:18:55.750000,-92.47,61.93
295801,2018-06-29 11:18:55.781250,-38.88,61.93
295802,2018-06-29 11:18:55.812500,11.49,61.93
295803,2018-06-29 11:18:55.843750,44.44,61.93
295804,2018-06-29 11:18:55.875000,62.48,61.93
295805,2018-06-29 11:18:55.906250,71.49,61.93
295806,2018-06-29 11:18:55.937500,74.01,61.93
295807,2018-06-29 11:18:55.968750,72.94,61.93
295808,2018-06-29 11:18:56.000000,71.83,61.93
295809,2018-06-29 11:18:56.031250,71.33,61.93
295810,2018-06-29 11:18:56.062500,70.37,61.93
295811,2018-06-29 11:18:56.093750,69.59,61.93
295812,2018-06-29 11:18:56.125000,69.63,61.93
295813,2018-06-29 11:18:56.156250,67.47,61.93
295814,2018-06-29 11:18:56.187500,59.43,61.93
295815,2018-06-29 11:18:56.218750,46.99,61.93
295816,2018-06-29 11:18:56.250000,35.22,61.93
295817,2018-06-29 11:18:56.281250,25.89,61.93
295818,2018-06-29 11:18:56.312500,16.13,61.93
295819,2018-06-29 11:18:56.343750,4.18,61.93
295820,2018-06-29 11:18:56.375000,-7.6,61.93
295821,2018-06-29 11:18:56.406250,-17.19,61.93
295822,2018-06-29 11:18:56.437500,-27.03,61.93
295823,2018-06-29 11:18:56.468750,-40.18,61.93
295824,2018-06-29 11:18:56.500000,-54.95,61.93
295825,2018-06-29 11:18:56.531250,-67.01,61.58
295826,2018-06-29 11:18:56.562500,-75.9,61.58
295827,2018-06-29 11:18:56.593750,-86.14,61.58
295828,2018-06-29 11:18:56.625000,-102.2,61.58
295829,2018-06-29 11:18:56.656250,-120.86,61.58
295830,2018-06-29 11:18:56.687500,-126.89,61.58
295831,2018-06-29 11:18:56.718750,-103.74,61.58
295832,2018-06-29 11:18:56.750000,-54.11,61.58
295833,2018-06-29 11:18:56.781250,-1.17,61.58
295834,2018-06-29 11:18:56.812500,35.38,61.58
295835,2018-06-29 11:18:56.843750,54.04,61.58
295836,2018-06-29 11:18:56.875000,61.34,61.58
295837,2018-06-29 11:18:56.906250,60.9,61.58
295838,2018-06-29 11:18:56.937500,56.52,61.58
295839,2018-06-29 11:18:56.968750,54.17,61.58
295840,2018-06-29 11:18:57.000000,55.92,61.58
295841,2018-06-29 11:18:57.031250,58.34,61.58
295842,2018-06-29 11:18:57.062500,59.01,61.58
295843,2018-06-29 11:18:57.093750,58.71,61.58
295844,2018-06-29 11:18:57.125000,56.6,61.58
295845,2018-06-29 11:18:57.156250,49.97,61.58
295846,2018-06-29 11:18:57.187500,39.23,61.58
295847,2018-06-29 11:18:57.218750,28.27,61.58
295848,2018-06-29 11:18:57.250000,18.94,61.58
295849,2018-06-29 11:18:57.281250,9.36,61.58
295850,2018-06-29 11:18:57.312500,-1.09,61.58
295851,2018-06-29 11:18:57.343750,-9.89,61.58
295852,2018-06-29 11:18:57.375000,-16.99,61.58
295853,2018-06-29 11:18:57.406250,-26.52,61.58
295854,2018-06-29 11:18:57.437500,-39.81,61.58
295855,2018-06-29 11:18:57.468750,-52.61,61.58
295856,2018-06-29 11:18:57.500000,-61.8,61.58
295857,2018-06-29 11:18:57.531250,-70.08,61.38
295858,2018-06-29 11:18:57.562500,-82.81,61.38
295859,2018-06-29 11:18:57.593750,-100.98,61.38
295860,2018-06-29 11:18:57.625000,-114.1,61.38
295861,2018-06-29 11:18:57.656250,-103.69,61.38
295862,2018-06-29 11:18:57.687500,-63.41,61.38
295863,2018-06-29 11:18:57.718750,-10.62,61.38
295864,2018-06-29 11:18:57.750000,31.37,61.38
295865,2018-06-29 11:18:57.781250,54.72,61.38
295866,2018-06-29 11:18:57.812500,64.44,61.38
295867,2018-06-29 11:18:57.843750,65.76,61.38
295868,2018-06-29 11:18:57.875000,62.44,61.38
295869,2018-06-29 11:18:57.906250,58.95,61.38
295870,2018-06-29 11:18:57.937500,57.88,61.38
295871,2018-06-29 11:18:57.968750,58.22,61.38
295872,2018-06-29 11:18:58.000000,58.57,61.38
295873,2018-06-29 11:18:58.031250,59.15,61.38
295874,2018-06-29 11:18:58.062500,58.88,61.38
295875,2018-06-29 11:18:58.093750,54.3,61.38
295876,2018-06-29 11:18:58.125000,44.23,61.38
295877,2018-06-29 11:18:58.156250,32.52,61.38
295878,2018-06-29 11:18:58.187500,23.17,61.38
295879,2018-06-29 11:18:58.218750,15.08,61.38
295880,2018-06-29 11:18:58.250000,4.7,61.38
295881,2018-06-29 11:18:58.281250,-7.56,61.38
295882,2018-06-29 11:18:58.312500,-17.4,61.38
295883,2018-06-29 11:18:58.343750,-24.16,61.38
295884,2018-06-29 11:18:58.375000,-32.95,61.38
295885,2018-06-29 11:18:58.406250,-46.51,61.38
295886,2018-06-29 11:18:58.437500,-60.93,61.38
295887,2018-06-29 11:18:58.468750,-72.24,61.38
295888,2018-06-29 11:18:58.500000,-81.86,61.38
295889,2018-06-29 11:18:58.531250,-94.5,61.18
295890,2018-06-29 11:18:58.562500,-112.38,61.18
295891,2018-06-29 11:18:58.593750,-127.01,61.18
295892,2018-06-29 11:18:58.625000,-119.2,61.18
295893,2018-06-29 11:18:58.656250,-79.3,61.18
295894,2018-06-29 11:18:58.687500,-23.54,61.18
295895,2018-06-29 11:18:58.718750,22.63,61.18
295896,2018-06-29 11:18:58.750000,49.73,61.18
295897,2018-06-29 11:18:58.781250,62.7,61.18
295898,2018-06-29 11:18:58.812500,66.69,61.18
295899,2018-06-29 11:18:58.843750,65.49,61.18
295900,2018-06-29 11:18:58.875000,64.12,61.18
295901,2018-06-29 11:18:58.906250,64.91,61.18
295902,2018-06-29 11:18:58.937500,65.66,61.18
295903,2018-06-29 11:18:58.968750,64.79,61.18
295904,2018-06-29 11:18:59.000000,63.97,61.18
295905,2018-06-29 11:18:59.031250,64.03,61.18
295906,2018-06-29 11:18:59.062500,62.07,61.18
295907,2018-06-29 11:18:59.093750,54.96,61.18
295908,2018-06-29 11:18:59.125000,44.06,61.18
295909,2018-06-29 11:18:59.156250,33.56,61.18
295910,2018-06-29 11:18:59.187500,24.77,61.18
295911,2018-06-29 11:18:59.218750,15.11,61.18
295912,2018-06-29 11:18:59.250000,3.15,61.18
295913,2018-06-29 11:18:59.281250,-8.56,61.18
295914,2018-06-29 11:18:59.312500,-17.42,61.18
295915,2018-06-29 11:18:59.343750,-25.8,61.18
295916,2018-06-29 11:18:59.375000,-37.78,61.18
295917,2018-06-29 11:18:59.406250,-52.45,61.18
295918,2018-06-29 11:18:59.437500,-64.83,61.18
295919,2018-06-29 11:18:59.468750,-73.48,61.18
295920,2018-06-29 11:18:59.500000,-82.71,61.18
295921,2018-06-29 11:18:59.531250,-97.71,60.97
295922,2018-06-29 11:18:59.562500,-116.17,60.97
295923,2018-06-29 11:18:59.593750,-122.66,60.97
295924,2018-06-29 11:18:59.625000,-99.55,60.97
295925,2018-06-29 11:18:59.656250,-49.72,60.97
295926,2018-06-29 11:18:59.687500,2.85,60.97
295927,2018-06-29 11:18:59.718750,38.8,60.97
295928,2018-06-29 11:18:59.750000,57.09,60.97
295929,2018-06-29 11:18:59.781250,63.64,60.97
295930,2018-06-29 11:18:59.812500,61.89,60.97
295931,2018-06-29 11:18:59.843750,56.62,60.97
295932,2018-06-29 11:18:59.875000,54.19,60.97
295933,2018-06-29 11:18:59.906250,56.13,60.97
295934,2018-06-29 11:18:59.937500,58.8,60.97
295935,2018-06-29 11:18:59.968750,60.23,60.97
295936,2018-06-29 11:19:00.000000,61.6,60.97
295937,2018-06-29 11:19:00.031250,61.54,60.97
295938,2018-06-29 11:19:00.062500,56.23,60.97
295939,2018-06-29 11:19:00.093750,45.88,60.97
295940,2018-06-29 11:19:00.125000,35.04,60.97
295941,2018-06-29 11:19:00.156250,26.2,60.97
295942,2018-06-29 11:19:00.187500,17.86,60.97
295943,2018-06-29 11:19:00.218750,8.32,60.97
295944,2018-06-29 11:19:00.250000,-1.99,60.97
295945,2018-06-29 11:19:00.281250,-11.39,60.97
295946,2018-06-29 11:19:00.312500,-19.34,60.97
295947,2018-06-29 11:19:00.343750,-28.02,60.97
295948,2018-06-29 11:19:00.375000,-39.38,60.97
295949,2018-06-29 11:19:00.406250,-51.37,60.97
295950,2018-06-29 11:19:00.437500,-60.48,60.97
295951,2018-06-29 11:19:00.468750,-67.32,60.97
295952,2018-06-29 11:19:00.500000,-76.61,60.97
295953,2018-06-29 11:19:00.531250,-91.0,60.75
295954,2018-06-29 11:19:00.562500,-103.42,60.75
295955,2018-06-29 11:19:00.593750,-97.79,60.75
295956,2018-06-29 11:19:00.625000,-65.21,60.75
295957,2018-06-29 11:19:00.656250,-17.6,60.75
295958,2018-06-29 11:19:00.687500,23.43,60.75
295959,2018-06-29 11:19:00.718750,47.32,60.75
295960,2018-06-29 11:19:00.750000,56.28,60.75
295961,2018-06-29 11:19:00.781250,54.5,60.75
295962,2018-06-29 11:19:00.812500,46.53,60.75
295963,2018-06-29 11:19:00.843750,39.94,60.75
295964,2018-06-29 11:19:00.875000,40.15,60.75
295965,2018-06-29 11:19:00.906250,44.79,60.75
295966,2018-06-29 11:19:00.937500,48.04,60.75
295967,2018-06-29 11:19:00.968750,47.94,60.75
295968,2018-06-29 11:19:01.000000,45.99,60.75
295969,2018-06-29 11:19:01.031250,42.53,60.75
295970,2018-06-29 11:19:01.062500,35.8,60.75
295971,2018-06-29 11:19:01.093750,24.84,60.75
295972,2018-06-29 11:19:01.125000,12.0,60.75
295973,2018-06-29 11:19:01.156250,0.92,60.75
295974,2018-06-29 11:19:01.187500,-7.64,60.75
295975,2018-06-29 11:19:01.218750,-16.57,60.75
295976,2018-06-29 11:19:01.250000,-28.31,60.75
295977,2018-06-29 11:19:01.281250,-41.58,60.75
295978,2018-06-29 11:19:01.312500,-53.26,60.75
295979,2018-06-29 11:19:01.343750,-62.61,60.75
295980,2018-06-29 11:19:01.375000,-72.36,60.75
295981,2018-06-29 11:19:01.406250,-86.38,60.75
295982,2018-06-29 11:19:01.437500,-103.67,60.75
295983,2018-06-29 11:19:01.468750,-111.83,60.75
295984,2018-06-29 11:19:01.500000,-94.03,60.75
295985,2018-06-29 11:19:01.531250,-49.95,60.55
295986,2018-06-29 11:19:01.562500,-0.41,60.55
295987,2018-06-29 11:19:01.593750,35.14,60.55
295988,2018-06-29 11:19:01.625000,54.64,60.55
295989,2018-06-29 11:19:01.656250,64.01,60.55
295990,2018-06-29 11:19:01.687500,66.19,60.55
295991,2018-06-29 11:19:01.718750,63.86,60.55
295992,2018-06-29 11:19:01.750000,61.81,60.55
295993,2018-06-29 11:19:01.781250,62.43,60.55
295994,2018-06-29 11:19:01.812500,63.87,60.55
295995,2018-06-29 11:19:01.843750,64.05,60.55
295996,2018-06-29 11:19:01.875000,62.42,60.55
295997,2018-06-29 11:19:01.906250,58.09,60.55
295998,2018-06-29 11:19:01.937500,50.29,60.55
295999,2018-06-29 11:19:01.968750,40.03,60.55
296000,2018-06-29 11:19:02.000000,28.7,60.55
296001,2018-06-29 11:19:02.031250,16.75,60.55
296002,2018-06-29 11:19:02.062500,5.17,60.55
296003,2018-06-29 11:19:02.093750,-4.8,60.55
296004,2018-06-29 11:19:02.125000,-14.37,60.55
296005,2018-06-29 11:19:02.156250,-26.59,60.55
296006,2018-06-29 11:19:02.187500,-41.83,60.55
296007,2018-06-29 11:19:02.218750,-56.43,60.55
296008,2018-06-29 11:19:02.250000,-67.84,60.55
296009,2018-06-29 11:19:02.281250,-78.36,60.55
296010,2018-06-29 11:19:02.312500,-92.54,60.55
296011,2018-06-29 11:19:02.343750,-111.56,60.55
296012,2018-06-29 11:19:02.375000,-127.23,60.55
296013,2018-06-29 11:19:02.406250,-122.51,60.55
296014,2018-06-29 11:19:02.437500,-87.57,60.55
296015,2018-06-29 11:19:02.468750,-34.51,60.55
296016,2018-06-29 11:19:02.500000,13.66,60.55
296017,2018-06-29 11:19:02.531250,45.1,60.37
296018,2018-06-29 11:19:02.562500,61.88,60.37
296019,2018-06-29 11:19:02.593750,69.08,60.37
296020,2018-06-29 11:19:02.625000,70.58,60.37
296021,2018-06-29 11:19:02.656250,70.53,60.37
296022,2018-06-29 11:19:02.687500,71.8,60.37
296023,2018-06-29 11:19:02.718750,73.41,60.37
296024,2018-06-29 11:19:02.750000,72.69,60.37
296025,2018-06-29 11:19:02.781250,69.88,60.37
296026,2018-06-29 11:19:02.812500,67.41,60.37
296027,2018-06-29 11:19:02.843750,64.44,60.37
296028,2018-06-29 11:19:02.875000,57.8,60.37
296029,2018-06-29 11:19:02.906250,47.82,60.37
296030,2018-06-29 11:19:02.937500,37.81,60.37
296031,2018-06-29 11:19:02.968750,28.86,60.37
296032,2018-06-29 11:19:03.000000,18.82,60.37
296033,2018-06-29 11:19:03.031250,6.44,60.37
296034,2018-06-29 11:19:03.062500,-6.1,60.37
296035,2018-06-29 11:19:03.093750,-15.85,60.37
296036,2018-06-29 11:19:03.125000,-24.21,60.37
296037,2018-06-29 11:19:03.156250,-35.76,60.37
296038,2018-06-29 11:19:03.187500,-51.16,60.37
296039,2018-06-29 11:19:03.218750,-65.68,60.37
296040,2018-06-29 11:19:03.250000,-76.34,60.37
296041,2018-06-29 11:19:03.281250,-86.33,60.37
296042,2018-06-29 11:19:03.312500,-101.13,60.37
296043,2018-06-29 11:19:03.343750,-120.59,60.37
296044,2018-06-29 11:19:03.375000,-132.45,60.37
296045,2018-06-29 11:19:03.406250,-118.19,60.37
296046,2018-06-29 11:19:03.437500,-73.72,60.37
296047,2018-06-29 11:19:03.468750,-17.86,60.37
296048,2018-06-29 11:19:03.500000,27.1,60.37
296049,2018-06-29 11:19:03.531250,54.44,60.18
296050,2018-06-29 11:19:03.562500,68.34,60.18
296051,2018-06-29 11:19:03.593750,72.73,60.18
296052,2018-06-29 11:19:03.625000,71.43,60.18
296053,2018-06-29 11:19:03.656250,69.95,60.18
296054,2018-06-29 11:19:03.687500,71.54,60.18
296055,2018-06-29 11:19:03.718750,74.66,60.18
296056,2018-06-29 11:19:03.750000,76.5,60.18
296057,2018-06-29 11:19:03.781250,76.76,60.18
296058,2018-06-29 11:19:03.812500,76.03,60.18
296059,2018-06-29 11:19:03.843750,72.9,60.18
296060,2018-06-29 11:19:03.875000,65.28,60.18
296061,2018-06-29 11:19:03.906250,53.78,60.18
296062,2018-06-29 11:19:03.937500,42.04,60.18
296063,2018-06-29 11:19:03.968750,33.19,60.18
296064,2018-06-29 11:19:04.000000,26.31,60.18
296065,2018-06-29 11:19:04.031250,18.04,60.18
296066,2018-06-29 11:19:04.062500,7.65,60.18
296067,2018-06-29 11:19:04.093750,-2.22,60.18
296068,2018-06-29 11:19:04.125000,-10.34,60.18
296069,2018-06-29 11:19:04.156250,-19.2,60.18
296070,2018-06-29 11:19:04.187500,-31.26,60.18
296071,2018-06-29 11:19:04.218750,-45.32,60.18
296072,2018-06-29 11:19:04.250000,-57.99,60.18
296073,2018-06-29 11:19:04.281250,-67.81,60.18
296074,2018-06-29 11:19:04.312500,-76.94,60.18
296075,2018-06-29 11:19:04.343750,-89.36,60.18
296076,2018-06-29 11:19:04.375000,-105.61,60.18
296077,2018-06-29 11:19:04.406250,-115.91,60.18
296078,2018-06-29 11:19:04.437500,-103.77,60.18
296079,2018-06-29 11:19:04.468750,-64.79,60.18
296080,2018-06-29 11:19:04.500000,-15.55,60.18
296081,2018-06-29 11:19:04.531250,23.55,60.02
296082,2018-06-29 11:19:04.562500,46.28,60.02
296083,2018-06-29 11:19:04.593750,56.17,60.02
296084,2018-06-29 11:19:04.625000,56.31,60.02
296085,2018-06-29 11:19:04.656250,50.75,60.02
296086,2018-06-29 11:19:04.687500,46.75,60.02
296087,2018-06-29 11:19:04.718750,48.6,60.02
296088,2018-06-29 11:19:04.750000,53.22,60.02
296089,2018-06-29 11:19:04.781250,55.33,60.02
296090,2018-06-29 11:19:04.812500,53.64,60.02
296091,2018-06-29 11:19:04.843750,49.89,60.02
296092,2018-06-29 11:19:04.875000,44.34,60.02
296093,2018-06-29 11:19:04.906250,35.6,60.02
296094,2018-06-29 11:19:04.937500,24.02,60.02
296095,2018-06-29 11:19:04.968750,12.27,60.02
296096,2018-06-29 11:19:05.000000,2.24,60.02
296097,2018-06-29 11:19:05.031250,-6.47,60.02
296098,2018-06-29 11:19:05.062500,-15.46,60.02
296099,2018-06-29 11:19:05.093750,-26.35,60.02
296100,2018-06-29 11:19:05.125000,-39.09,60.02
296101,2018-06-29 11:19:05.156250,-51.31,60.02
296102,2018-06-29 11:19:05.187500,-61.07,60.02
296103,2018-06-29 11:19:05.218750,-69.78,60.02
296104,2018-06-29 11:19:05.250000,-81.39,60.02
296105,2018-06-29 11:19:05.281250,-98.12,60.02
296106,2018-06-29 11:19:05.312500,-112.46,60.02
296107,2018-06-29 11:19:05.343750,-107.24,60.02
296108,2018-06-29 11:19:05.375000,-73.38,60.02
296109,2018-06-29 11:19:05.406250,-23.92,60.02
296110,2018-06-29 11:19:05.437500,19.22,60.02
296111,2018-06-29 11:19:05.468750,46.4,60.02
296112,2018-06-29 11:19:05.500000,60.89,60.02
296113,2018-06-29 11:19:05.531250,67.33,59.88
296114,2018-06-29 11:19:05.562500,68.04,59.88
296115,2018-06-29 11:19:05.593750,66.16,59.88
296116,2018-06-29 11:19:05.625000,65.3,59.88
296117,2018-06-29 11:19:05.656250,66.07,59.88
296118,2018-06-29 11:19:05.687500,66.47,59.88
296119,2018-06-29 11:19:05.718750,65.41,59.88
296120,2018-06-29 11:19:05.750000,62.61,59.88
296121,2018-06-29 11:19:05.781250,56.57,59.88
296122,2018-06-29 11:19:05.812500,46.84,59.88
296123,2018-06-29 11:19:05.843750,36.17,59.88
296124,2018-06-29 11:19:05.875000,26.79,59.88
296125,2018-06-29 11:19:05.906250,17.07,59.88
296126,2018-06-29 11:19:05.937500,5.18,59.88
296127,2018-06-29 11:19:05.968750,-6.93,59.88
296128,2018-06-29 11:19:06.000000,-16.69,59.88
296129,2018-06-29 11:19:06.031250,-25.88,59.88
296130,2018-06-29 11:19:06.062500,-38.12,59.88
296131,2018-06-29 11:19:06.093750,-52.73,59.88
296132,2018-06-29 11:19:06.125000,-65.52,59.88
296133,2018-06-29 11:19:06.156250,-75.25,59.88
296134,2018-06-29 11:19:06.187500,-85.7,59.88
296135,2018-06-29 11:19:06.218750,-101.13,59.88
296136,2018-06-29 11:19:06.250000,-118.58,59.88
296137,2018-06-29 11:19:06.281250,-123.49,59.88
296138,2018-06-29 11:19:06.312500,-100.78,59.88
296139,2018-06-29 11:19:06.343750,-54.05,59.88
296140,2018-06-29 11:19:06.375000,-4.52,59.88
296141,2018-06-29 11:19:06.406250,31.18,59.88
296142,2018-06-29 11:19:06.437500,51.89,59.88
296143,2018-06-29 11:19:06.468750,62.47,59.88
296144,2018-06-29 11:19:06.500000,65.98,59.88
296145,2018-06-29 11:19:06.531250,65.54,59.75
296146,2018-06-29 11:19:06.562500,65.01,59.75
296147,2018-06-29 11:19:06.593750,65.56,59.75
296148,2018-06-29 11:19:06.625000,65.5,59.75
296149,2018-06-29 11:19:06.656250,64.37,59.75
296150,2018-06-29 11:19:06.687500,63.25,59.75
296151,2018-06-29 11:19:06.718750,60.99,59.75
296152,2018-06-29 11:19:06.750000,54.72,59.75
296153,2018-06-29 11:19:06.781250,44.36,59.75
296154,2018-06-29 11:19:06.812500,33.06,59.75
296155,2018-06-29 11:19:06.843750,23.42,59.75
296156,2018-06-29 11:19:06.875000,14.89,59.75
296157,2018-06-29 11:19:06.906250,5.15,59.75
296158,2018-06-29 11:19:06.937500,-5.95,59.75
296159,2018-06-29 11:19:06.968750,-15.73,59.75
296160,2018-06-29 11:19:07.000000,-23.59,59.75
296161,2018-06-29 11:19:07.031250,-33.14,59.75
296162,2018-06-29 11:19:07.062500,-46.58,59.75
296163,2018-06-29 11:19:07.093750,-60.72,59.75
296164,2018-06-29 11:19:07.125000,-71.71,59.75
296165,2018-06-29 11:19:07.156250,-80.56,59.75
296166,2018-06-29 11:19:07.187500,-92.05,59.75
296167,2018-06-29 11:19:07.218750,-108.62,59.75
296168,2018-06-29 11:19:07.250000,-122.92,59.75
296169,2018-06-29 11:19:07.281250,-118.28,59.75
296170,2018-06-29 11:19:07.312500,-84.88,59.75
296171,2018-06-29 11:19:07.343750,-34.27,59.75
296172,2018-06-29 11:19:07.375000,11.35,59.75
296173,2018-06-29 11:19:07.406250,41.23,59.75
296174,2018-06-29 11:19:07.437500,58.34,59.75
296175,2018-06-29 11:19:07.468750,66.82,59.75
296176,2018-06-29 11:19:07.500000,68.47,59.75
296177,2018-06-29 11:19:07.531250,67.5,59.63
296178,2018-06-29 11:19:07.562500,68.44,59.63
296179,2018-06-29 11:19:07.593750,70.84,59.63
296180,2018-06-29 11:19:07.625000,71.8,59.63
296181,2018-06-29 11:19:07.656250,71.17,59.63
296182,2018-06-29 11:19:07.687500,69.86,59.63
296183,2018-06-29 11:19:07.718750,66.48,59.63
296184,2018-06-29 11:19:07.750000,59.15,59.63
296185,2018-06-29 11:19:07.781250,48.54,59.63
296186,2018-06-29 11:19:07.812500,37.51,59.63
296187,2018-06-29 11:19:07.843750,28.68,59.63
296188,2018-06-29 11:19:07.875000,21.58,59.63
296189,2018-06-29 11:19:07.906250,13.26,59.63
296190,2018-06-29 11:19:07.937500,2.8,59.63
296191,2018-06-29 11:19:07.968750,-6.83,59.63
296192,2018-06-29 11:19:08.000000,-13.95,59.63
296193,2018-06-29 11:19:08.031250,-22.29,59.63
296194,2018-06-29 11:19:08.062500,-35.64,59.63
296195,2018-06-29 11:19:08.093750,-51.21,59.63
296196,2018-06-29 11:19:08.125000,-63.22,59.63
296197,2018-06-29 11:19:08.156250,-71.11,59.63
296198,2018-06-29 11:19:08.187500,-79.9,59.63
296199,2018-06-29 11:19:08.218750,-93.84,59.63
296200,2018-06-29 11:19:08.250000,-110.59,59.63
296201,2018-06-29 11:19:08.281250,-117.95,59.63
296202,2018-06-29 11:19:08.312500,-100.59,59.63
296203,2018-06-29 11:19:08.343750,-57.87,59.63
296204,2018-06-29 11:19:08.375000,-8.66,59.63
296205,2018-06-29 11:19:08.406250,27.75,59.63
296206,2018-06-29 11:19:08.437500,47.73,59.63
296207,2018-06-29 11:19:08.468750,56.76,59.63
296208,2018-06-29 11:19:08.500000,58.86,59.63
296209,2018-06-29 11:19:08.531250,57.17,59.52
296210,2018-06-29 11:19:08.562500,56.22,59.52
296211,2018-06-29 11:19:08.593750,57.98,59.52
296212,2018-06-29 11:19:08.625000,60.32,59.52
296213,2018-06-29 11:19:08.656250,61.27,59.52
296214,2018-06-29 11:19:08.687500,61.04,59.52
296215,2018-06-29 11:19:08.718750,59.01,59.52
296216,2018-06-29 11:19:08.750000,52.83,59.52
296217,2018-06-29 11:19:08.781250,42.54,59.52
296218,2018-06-29 11:19:08.812500,31.81,59.52
296219,2018-06-29 11:19:08.843750,23.03,59.52
296220,2018-06-29 11:19:08.875000,14.6,59.52
296221,2018-06-29 11:19:08.906250,4.73,59.52
296222,2018-06-29 11:19:08.937500,-5.19,59.52
296223,2018-06-29 11:19:08.968750,-13.45,59.52
296224,2018-06-29 11:19:09.000000,-21.89,59.52
296225,2018-06-29 11:19:09.031250,-33.65,59.52
296226,2018-06-29 11:19:09.062500,-47.85,59.52
296227,2018-06-29 11:19:09.093750,-59.86,59.52
296228,2018-06-29 11:19:09.125000,-68.32,59.52
296229,2018-06-29 11:19:09.156250,-77.99,59.52
296230,2018-06-29 11:19:09.187500,-93.73,59.52
296231,2018-06-29 11:19:09.218750,-111.62,59.52
296232,2018-06-29 11:19:09.250000,-116.82,59.52
296233,2018-06-29 11:19:09.281250,-95.43,59.52
296234,2018-06-29 11:19:09.312500,-51.68,59.52
296235,2018-06-29 11:19:09.343750,-6.02,59.52
296236,2018-06-29 11:19:09.375000,26.31,59.52
296237,2018-06-29 11:19:09.406250,45.8,59.52
296238,2018-06-29 11:19:09.437500,57.93,59.52
296239,2018-06-29 11:19:09.468750,64.04,59.52
296240,2018-06-29 11:19:09.500000,65.17,59.52
296241,2018-06-29 11:19:09.531250,65.03,59.42
296242,2018-06-29 11:19:09.562500,65.55,59.42
296243,2018-06-29 11:19:09.593750,64.97,59.42
296244,2018-06-29 11:19:09.625000,62.78,59.42
296245,2018-06-29 11:19:09.656250,61.05,59.42
296246,2018-06-29 11:19:09.687500,59.17,59.42
296247,2018-06-29 11:19:09.718750,53.32,59.42
296248,2018-06-29 11:19:09.750000,42.87,59.42
296249,2018-06-29 11:19:09.781250,32.13,59.42
296250,2018-06-29 11:19:09.812500,23.97,59.42
296251,2018-06-29 11:19:09.843750,16.31,59.42
296252,2018-06-29 11:19:09.875000,6.61,59.42
296253,2018-06-29 11:19:09.906250,-3.99,59.42
296254,2018-06-29 11:19:09.937500,-12.88,59.42
296255,2018-06-29 11:19:09.968750,-20.26,59.42
296256,2018-06-29 11:19:10.000000,-29.54,59.42
296257,2018-06-29 11:19:10.031250,-42.72,59.42
296258,2018-06-29 11:19:10.062500,-56.85,59.42
296259,2018-06-29 11:19:10.093750,-67.56,59.42
296260,2018-06-29 11:19:10.125000,-75.52,59.42
296261,2018-06-29 11:19:10.156250,-86.48,59.42
296262,2018-06-29 11:19:10.187500,-103.42,59.42
296263,2018-06-29 11:19:10.218750,-118.55,59.42
296264,2018-06-29 11:19:10.250000,-115.14,59.42
296265,2018-06-29 11:19:10.281250,-83.72,59.42
296266,2018-06-29 11:19:10.312500,-35.36,59.42
296267,2018-06-29 11:19:10.343750,8.93,59.42
296268,2018-06-29 11:19:10.375000,38.59,59.42
296269,2018-06-29 11:19:10.406250,55.93,59.42
296270,2018-06-29 11:19:10.437500,64.86,59.42
296271,2018-06-29 11:19:10.468750,66.86,59.42
296272,2018-06-29 11:19:10.500000,64.98,59.42
296273,2018-06-29 11:19:10.531250,63.92,59.33
296274,2018-06-29 11:19:10.562500,65.4,59.33
296275,2018-06-29 11:19:10.593750,67.12,59.33
296276,2018-06-29 11:19:10.625000,66.96,59.33
296277,2018-06-29 11:19:10.656250,65.34,59.33
296278,2018-06-29 11:19:10.687500,62.34,59.33
296279,2018-06-29 11:19:10.718750,56.12,59.33
296280,2018-06-29 11:19:10.750000,46.05,59.33
296281,2018-06-29 11:19:10.781250,35.13,59.33
296282,2018-06-29 11:19:10.812500,26.88,59.33
296283,2018-06-29 11:19:10.843750,20.86,59.33
296284,2018-06-29 11:19:10.875000,13.32,59.33
296285,2018-06-29 11:19:10.906250,2.73,59.33
296286,2018-06-29 11:19:10.937500,-7.86,59.33
296287,2018-06-29 11:19:10.968750,-15.36,59.33
296288,2018-06-29 11:19:11.000000,-21.9,59.33
296289,2018-06-29 11:19:11.031250,-32.07,59.33
296290,2018-06-29 11:19:11.062500,-45.97,59.33
296291,2018-06-29 11:19:11.093750,-59.0,59.33
296292,2018-06-29 11:19:11.125000,-68.72,59.33
296293,2018-06-29 11:19:11.156250,-77.58,59.33
296294,2018-06-29 11:19:11.187500,-89.41,59.33
296295,2018-06-29 11:19:11.218750,-104.89,59.33
296296,2018-06-29 11:19:11.250000,-115.84,59.33
296297,2018-06-29 11:19:11.281250,-106.44,59.33
296298,2018-06-29 11:19:11.312500,-70.06,59.33
296299,2018-06-29 11:19:11.343750,-21.27,59.33
296300,2018-06-29 11:19:11.375000,18.4,59.33
296301,2018-06-29 11:19:11.406250,41.2,59.33
296302,2018-06-29 11:19:11.437500,51.64,59.33
296303,2018-06-29 11:19:11.468750,54.45,59.33
296304,2018-06-29 11:19:11.500000,52.84,59.33
296305,2018-06-29 11:19:11.531250,51.12,59.23
296306,2018-06-29 11:19:11.562500,52.07,59.23
296307,2018-06-29 11:19:11.593750,54.54,59.23
296308,2018-06-29 11:19:11.625000,56.56,59.23
296309,2018-06-29 11:19:11.656250,57.73,59.23
296310,2018-06-29 11:19:11.687500,57.03,59.23
296311,2018-06-29 11:19:11.718750,52.51,59.23
296312,2018-06-29 11:19:11.750000,44.47,59.23
296313,2018-06-29 11:19:11.781250,35.79,59.23
296314,2018-06-29 11:19:11.812500,27.85,59.23
296315,2018-06-29 11:19:11.843750,19.26,59.23
296316,2018-06-29 11:19:11.875000,9.3,59.23
296317,2018-06-29 11:19:11.906250,-0.45,59.23
296318,2018-06-29 11:19:11.937500,-9.01,59.23
296319,2018-06-29 11:19:11.968750,-18.05,59.23
296320,2018-06-29 11:19:12.000000,-29.23,59.23
296321,2018-06-29 11:19:12.031250,-41.48,59.23
296322,2018-06-29 11:19:12.062500,-52.38,59.23
296323,2018-06-29 11:19:12.093750,-61.2,59.23
296324,2018-06-29 11:19:12.125000,-70.66,59.23
296325,2018-06-29 11:19:12.156250,-85.0,59.23
296326,2018-06-29 11:19:12.187500,-102.19,59.23
296327,2018-06-29 11:19:12.218750,-108.14,59.23
296328,2018-06-29 11:19:12.250000,-87.87,59.23
296329,2018-06-29 11:19:12.281250,-44.6,59.23
296330,2018-06-29 11:19:12.312500,1.4,59.23
296331,2018-06-29 11:19:12.343750,33.87,59.23
296332,2018-06-29 11:19:12.375000,51.26,59.23
296333,2018-06-29 11:19:12.406250,58.17,59.23
296334,2018-06-29 11:19:12.437500,58.25,59.23
296335,2018-06-29 11:19:12.468750,56.0,59.23
296336,2018-06-29 11:19:12.500000,55.96,59.23
296337,2018-06-29 11:19:12.531250,58.34,59.15
296338,2018-06-29 11:19:12.562500,59.97,59.15
296339,2018-06-29 11:19:12.593750,59.77,59.15
296340,2018-06-29 11:19:12.625000,58.7,59.15
296341,2018-06-29 11:19:12.656250,55.31,59.15
296342,2018-06-29 11:19:12.687500,47.11,59.15
296343,2018-06-29 11:19:12.718750,35.78,59.15
296344,2018-06-29 11:19:12.750000,25.88,59.15
296345,2018-06-29 11:19:12.781250,18.4,59.15
296346,2018-06-29 11:19:12.812500,10.07,59.15
296347,2018-06-29 11:19:12.843750,-0.61,59.15
296348,2018-06-29 11:19:12.875000,-10.84,59.15
296349,2018-06-29 11:19:12.906250,-18.74,59.15
296350,2018-06-29 11:19:12.937500,-27.12,59.15
296351,2018-06-29 11:19:12.968750,-39.36,59.15
296352,2018-06-29 11:19:13.000000,-54.04,59.15
296353,2018-06-29 11:19:13.031250,-66.99,59.15
296354,2018-06-29 11:19:13.062500,-76.89,59.15
296355,2018-06-29 11:19:13.093750,-86.86,59.15
296356,2018-06-29 11:19:13.125000,-101.22,59.15
296357,2018-06-29 11:19:13.156250,-117.75,59.15
296358,2018-06-29 11:19:13.187500,-121.94,59.15
296359,2018-06-29 11:19:13.218750,-98.62,59.15
296360,2018-06-29 11:19:13.250000,-52.52,59.15
296361,2018-06-29 11:19:13.281250,-5.79,59.15
296362,2018-06-29 11:19:13.312500,26.65,59.15
296363,2018-06-29 11:19:13.343750,46.21,59.15
296364,2018-06-29 11:19:13.375000,57.87,59.15
296365,2018-06-29 11:19:13.406250,62.93,59.15
296366,2018-06-29 11:19:13.437500,63.51,59.15
296367,2018-06-29 11:19:13.468750,63.32,59.15
296368,2018-06-29 11:19:13.500000,63.62,59.15
296369,2018-06-29 11:19:13.531250,63.35,59.07
296370,2018-06-29 11:19:13.562500,62.63,59.07
296371,2018-06-29 11:19:13.593750,62.44,59.07
296372,2018-06-29 11:19:13.625000,61.6,59.07
296373,2018-06-29 11:19:13.656250,57.37,59.07
296374,2018-06-29 11:19:13.687500,48.78,59.07
296375,2018-06-29 11:19:13.718750,38.27,59.07
296376,2018-06-29 11:19:13.750000,29.2,59.07
296377,2018-06-29 11:19:13.781250,21.72,59.07
296378,2018-06-29 11:19:13.812500,12.77,59.07
296379,2018-06-29 11:19:13.843750,1.42,59.07
296380,2018-06-29 11:19:13.875000,-8.98,59.07
296381,2018-06-29 11:19:13.906250,-16.16,59.07
296382,2018-06-29 11:19:13.937500,-23.14,59.07
296383,2018-06-29 11:19:13.968750,-34.38,59.07
296384,2018-06-29 11:19:14.000000,-49.42,59.07
296385,2018-06-29 11:19:14.031250,-63.35,59.07
296386,2018-06-29 11:19:14.062500,-73.16,59.07
296387,2018-06-29 11:19:14.093750,-81.51,59.07
296388,2018-06-29 11:19:14.125000,-93.88,59.07
296389,2018-06-29 11:19:14.156250,-110.93,59.07
296390,2018-06-29 11:19:14.187500,-121.93,59.07
296391,2018-06-29 11:19:14.218750,-110.15,59.07
296392,2018-06-29 11:19:14.250000,-71.47,59.07
296393,2018-06-29 11:19:14.281250,-22.4,59.07
296394,2018-06-29 11:19:14.312500,16.91,59.07
296395,2018-06-29 11:19:14.343750,40.42,59.07
296396,2018-06-29 11:19:14.375000,53.01,59.07
296397,2018-06-29 11:19:14.406250,59.08,59.07
296398,2018-06-29 11:19:14.437500,60.68,59.07
296399,2018-06-29 11:19:14.468750,60.91,59.07
296400,2018-06-29 11:19:14.500000,62.45,59.07
296401,2018-06-29 11:19:14.531250,64.32,59.0
296402,2018-06-29 11:19:14.562500,64.31,59.0
296403,2018-06-29 11:19:14.593750,63.34,59.0
296404,2018-06-29 11:19:14.625000,63.23,59.0
296405,2018-06-29 11:19:14.656250,61.91,59.0
296406,2018-06-29 11:19:14.687500,55.72,59.0
296407,2018-06-29 11:19:14.718750,45.34,59.0
296408,2018-06-29 11:19:14.750000,35.3,59.0
296409,2018-06-29 11:19:14.781250,27.71,59.0
296410,2018-06-29 11:19:14.812500,19.93,59.0
296411,2018-06-29 11:19:14.843750,9.34,59.0
296412,2018-06-29 11:19:14.875000,-2.43,59.0
296413,2018-06-29 11:19:14.906250,-11.68,59.0
296414,2018-06-29 11:19:14.937500,-18.33,59.0
296415,2018-06-29 11:19:14.968750,-26.64,59.0
296416,2018-06-29 11:19:15.000000,-39.23,59.0
296417,2018-06-29 11:19:15.031250,-53.2,59.0
296418,2018-06-29 11:19:15.062500,-64.21,59.0
296419,2018-06-29 11:19:15.093750,-72.24,59.0
296420,2018-06-29 11:19:15.125000,-81.5,59.0
296421,2018-06-29 11:19:15.156250,-95.58,59.0
296422,2018-06-29 11:19:15.187500,-110.39,59.0
296423,2018-06-29 11:19:15.218750,-111.32,59.0
296424,2018-06-29 11:19:15.250000,-85.63,59.0
296425,2018-06-29 11:19:15.281250,-39.6,59.0
296426,2018-06-29 11:19:15.312500,5.67,59.0
296427,2018-06-29 11:19:15.343750,35.78,59.0
296428,2018-06-29 11:19:15.375000,51.19,59.0
296429,2018-06-29 11:19:15.406250,56.73,59.0
296430,2018-06-29 11:19:15.437500,54.81,59.0
296431,2018-06-29 11:19:15.468750,49.3,59.0
296432,2018-06-29 11:19:15.500000,46.17,59.0
296433,2018-06-29 11:19:15.531250,47.52,58.93
296434,2018-06-29 11:19:15.562500,49.86,58.93
296435,2018-06-29 11:19:15.593750,49.9,58.93
296436,2018-06-29 11:19:15.625000,47.91,58.93
296437,2018-06-29 11:19:15.656250,44.68,58.93
296438,2018-06-29 11:19:15.687500,38.82,58.93
296439,2018-06-29 11:19:15.718750,28.95,58.93
296440,2018-06-29 11:19:15.750000,17.01,58.93
296441,2018-06-29 11:19:15.781250,6.82,58.93
296442,2018-06-29 11:19:15.812500,-0.68,58.93
296443,2018-06-29 11:19:15.843750,-8.4,58.93
296444,2018-06-29 11:19:15.875000,-18.75,58.93
296445,2018-06-29 11:19:15.906250,-30.64,58.93
296446,2018-06-29 11:19:15.937500,-41.78,58.93
296447,2018-06-29 11:19:15.968750,-51.68,58.93
296448,2018-06-29 11:19:16.000000,-61.77,58.93
296449,2018-06-29 11:19:16.031250,-74.84,58.93
296450,2018-06-29 11:19:16.062500,-92.65,58.93
296451,2018-06-29 11:19:16.093750,-108.32,58.93
296452,2018-06-29 11:19:16.125000,-104.93,58.93
296453,2018-06-29 11:19:16.156250,-72.45,58.93
296454,2018-06-29 11:19:16.187500,-22.86,58.93
296455,2018-06-29 11:19:16.218750,21.48,58.93
296456,2018-06-29 11:19:16.250000,50.03,58.93
296457,2018-06-29 11:19:16.281250,66.05,58.93
296458,2018-06-29 11:19:16.312500,73.74,58.93
296459,2018-06-29 11:19:16.343750,74.57,58.93
296460,2018-06-29 11:19:16.375000,71.92,58.93
296461,2018-06-29 11:19:16.406250,70.17,58.93
296462,2018-06-29 11:19:16.437500,69.95,58.93
296463,2018-06-29 11:19:16.468750,69.39,58.93
296464,2018-06-29 11:19:16.500000,68.29,58.93
296465,2018-06-29 11:19:16.531250,66.55,58.9
296466,2018-06-29 11:19:16.562500,61.75,58.9
296467,2018-06-29 11:19:16.593750,52.36,58.9
296468,2018-06-29 11:19:16.625000,40.48,58.9
296469,2018-06-29 11:19:16.656250,28.68,58.9
296470,2018-06-29 11:19:16.687500,17.02,58.9
296471,2018-06-29 11:19:16.718750,5.1,58.9
296472,2018-06-29 11:19:16.750000,-5.87,58.9
296473,2018-06-29 11:19:16.781250,-15.78,58.9
296474,2018-06-29 11:19:16.812500,-27.35,58.9
296475,2018-06-29 11:19:16.843750,-41.94,58.9
296476,2018-06-29 11:19:16.875000,-56.64,58.9
296477,2018-06-29 11:19:16.906250,-68.41,58.9
296478,2018-06-29 11:19:16.937500,-78.62,58.9
296479,2018-06-29 11:19:16.968750,-92.12,58.9
296480,2018-06-29 11:19:17.000000,-111.67,58.9
296481,2018-06-29 11:19:17.031250,-129.12,58.9
296482,2018-06-29 11:19:17.062500,-125.54,58.9
296483,2018-06-29 11:19:17.093750,-90.63,58.9
296484,2018-06-29 11:19:17.125000,-38.04,58.9
296485,2018-06-29 11:19:17.156250,8.46,58.9
296486,2018-06-29 11:19:17.187500,38.12,58.9
296487,2018-06-29 11:19:17.218750,54.29,58.9
296488,2018-06-29 11:19:17.250000,61.84,58.9
296489,2018-06-29 11:19:17.281250,63.5,58.9
296490,2018-06-29 11:19:17.312500,62.75,58.9
296491,2018-06-29 11:19:17.343750,62.38,58.9
296492,2018-06-29 11:19:17.375000,61.74,58.9
296493,2018-06-29 11:19:17.406250,59.42,58.9
296494,2018-06-29 11:19:17.437500,57.19,58.9
296495,2018-06-29 11:19:17.468750,56.3,58.9
296496,2018-06-29 11:19:17.500000,52.96,58.9
296497,2018-06-29 11:19:17.531250,42.44,58.9
296498,2018-06-29 11:19:17.562500,26.42,58.9
296499,2018-06-29 11:19:17.593750,11.27,58.9
296500,2018-06-29 11:19:17.625000,-0.18,58.9
296501,2018-06-29 11:19:17.656250,-11.43,58.9
296502,2018-06-29 11:19:17.687500,-26.09,58.9
296503,2018-06-29 11:19:17.718750,-42.11,58.9
296504,2018-06-29 11:19:17.750000,-54.99,58.9
296505,2018-06-29 11:19:17.781250,-64.76,58.9
296506,2018-06-29 11:19:17.812500,-76.74,58.9
296507,2018-06-29 11:19:17.843750,-94.88,58.9
296508,2018-06-29 11:19:17.875000,-112.52,58.9
296509,2018-06-29 11:19:17.906250,-112.18,58.9
296510,2018-06-29 11:19:17.937500,-82.19,58.9
296511,2018-06-29 11:19:17.968750,-32.46,58.9
296512,2018-06-29 11:19:18.000000,14.75,58.9
296513,2018-06-29 11:19:18.031250,46.5,58.9
296514,2018-06-29 11:19:18.062500,63.79,58.9
296515,2018-06-29 11:19:18.093750,71.11,58.9
296516,2018-06-29 11:19:18.125000,71.43,58.9
296517,2018-06-29 11:19:18.156250,68.28,58.9
296518,2018-06-29 11:19:18.187500,65.47,58.9
296519,2018-06-29 11:19:18.218750,64.44,58.9
296520,2018-06-29 11:19:18.250000,64.75,58.9
296521,2018-06-29 11:19:18.281250,65.74,58.9
296522,2018-06-29 11:19:18.312500,65.45,58.9
296523,2018-06-29 11:19:18.343750,60.46,58.9
296524,2018-06-29 11:19:18.375000,49.74,58.9
296525,2018-06-29 11:19:18.406250,36.38,58.9
296526,2018-06-29 11:19:18.437500,23.22,58.9
296527,2018-06-29 11:19:18.468750,9.62,58.9
296528,2018-06-29 11:19:18.500000,-5.74,58.9
296529,2018-06-29 11:19:18.531250,-21.14,58.93
296530,2018-06-29 11:19:18.562500,-33.86,58.93
296531,2018-06-29 11:19:18.593750,-44.55,58.93
296532,2018-06-29 11:19:18.625000,-57.37,58.93
296533,2018-06-29 11:19:18.656250,-74.74,58.93
296534,2018-06-29 11:19:18.687500,-89.81,58.93
296535,2018-06-29 11:19:18.718750,-86.84,58.93
296536,2018-06-29 11:19:18.750000,-56.93,58.93
296537,2018-06-29 11:19:18.781250,-11.23,58.93
296538,2018-06-29 11:19:18.812500,29.58,58.93
296539,2018-06-29 11:19:18.843750,55.14,58.93
296540,2018-06-29 11:19:18.875000,67.07,58.93
296541,2018-06-29 11:19:18.906250,68.68,58.93
296542,2018-06-29 11:19:18.937500,63.33,58.93
296543,2018-06-29 11:19:18.968750,57.35,58.93
296544,2018-06-29 11:19:19.000000,55.67,58.93
296545,2018-06-29 11:19:19.031250,56.65,58.93
296546,2018-06-29 11:19:19.062500,56.33,58.93
296547,2018-06-29 11:19:19.093750,54.82,58.93
296548,2018-06-29 11:19:19.125000,53.46,58.93
296549,2018-06-29 11:19:19.156250,49.83,58.93
296550,2018-06-29 11:19:19.187500,41.67,58.93
296551,2018-06-29 11:19:19.218750,31.43,58.93
296552,2018-06-29 11:19:19.250000,22.65,58.93
296553,2018-06-29 11:19:19.281250,15.27,58.93
296554,2018-06-29 11:19:19.312500,6.87,58.93
296555,2018-06-29 11:19:19.343750,-3.5,58.93
296556,2018-06-29 11:19:19.375000,-13.51,58.93
296557,2018-06-29 11:19:19.406250,-20.63,58.93
296558,2018-06-29 11:19:19.437500,-27.03,58.93
296559,2018-06-29 11:19:19.468750,-37.09,58.93
296560,2018-06-29 11:19:19.500000,-49.83,58.93
296561,2018-06-29 11:19:19.531250,-59.81,58.97
296562,2018-06-29 11:19:19.562500,-65.69,58.97
296563,2018-06-29 11:19:19.593750,-72.34,58.97
296564,2018-06-29 11:19:19.625000,-84.58,58.97
296565,2018-06-29 11:19:19.656250,-99.89,58.97
296566,2018-06-29 11:19:19.687500,-105.1,58.97
296567,2018-06-29 11:19:19.718750,-85.09,58.97
296568,2018-06-29 11:19:19.750000,-41.28,58.97
296569,2018-06-29 11:19:19.781250,5.6,58.97
296570,2018-06-29 11:19:19.812500,36.55,58.97
296571,2018-06-29 11:19:19.843750,49.24,58.97
296572,2018-06-29 11:19:19.875000,49.87,58.97
296573,2018-06-29 11:19:19.906250,43.13,58.97
296574,2018-06-29 11:19:19.937500,34.43,58.97
296575,2018-06-29 11:19:19.968750,30.66,58.97
296576,2018-06-29 11:19:20.000000,33.33,58.97
296577,2018-06-29 11:19:20.031250,37.01,58.97
296578,2018-06-29 11:19:20.062500,37.36,58.97
296579,2018-06-29 11:19:20.093750,35.68,58.97
296580,2018-06-29 11:19:20.125000,33.49,58.97
296581,2018-06-29 11:19:20.156250,28.56,58.97
296582,2018-06-29 11:19:20.187500,18.9,58.97
296583,2018-06-29 11:19:20.218750,6.97,58.97
296584,2018-06-29 11:19:20.250000,-2.85,58.97
296585,2018-06-29 11:19:20.281250,-9.89,58.97
296586,2018-06-29 11:19:20.312500,-18.04,58.97
296587,2018-06-29 11:19:20.343750,-29.93,58.97
296588,2018-06-29 11:19:20.375000,-42.69,58.97
296589,2018-06-29 11:19:20.406250,-52.05,58.97
296590,2018-06-29 11:19:20.437500,-58.48,58.97
296591,2018-06-29 11:19:20.468750,-66.49,58.97
296592,2018-06-29 11:19:20.500000,-79.49,58.97
296593,2018-06-29 11:19:20.531250,-94.76,59.03
296594,2018-06-29 11:19:20.562500,-100.17,59.03
296595,2018-06-29 11:19:20.593750,-81.61,59.03
296596,2018-06-29 11:19:20.625000,-40.3,59.03
296597,2018-06-29 11:19:20.656250,4.8,59.03
296598,2018-06-29 11:19:20.687500,36.19,59.03
296599,2018-06-29 11:19:20.718750,51.3,59.03
296600,2018-06-29 11:19:20.750000,55.57,59.03
296601,2018-06-29 11:19:20.781250,53.21,59.03
296602,2018-06-29 11:19:20.812500,47.78,59.03
296603,2018-06-29 11:19:20.843750,44.09,59.03
296604,2018-06-29 11:19:20.875000,44.47,59.03
296605,2018-06-29 11:19:20.906250,45.89,59.03
296606,2018-06-29 11:19:20.937500,44.66,59.03
296607,2018-06-29 11:19:20.968750,41.61,59.03
296608,2018-06-29 11:19:21.000000,38.55,59.03
296609,2018-06-29 11:19:21.031250,33.08,59.03
296610,2018-06-29 11:19:21.062500,22.02,59.03
296611,2018-06-29 11:19:21.093750,7.32,59.03
296612,2018-06-29 11:19:21.125000,-5.76,59.03
296613,2018-06-29 11:19:21.156250,-15.15,59.03
296614,2018-06-29 11:19:21.187500,-23.99,59.03
296615,2018-06-29 11:19:21.218750,-35.75,59.03
296616,2018-06-29 11:19:21.250000,-49.3,59.03
296617,2018-06-29 11:19:21.281250,-60.53,59.03
296618,2018-06-29 11:19:21.312500,-68.3,59.03
296619,2018-06-29 11:19:21.343750,-76.57,59.03
296620,2018-06-29 11:19:21.375000,-90.47,59.03
296621,2018-06-29 11:19:21.406250,-109.09,59.03
296622,2018-06-29 11:19:21.437500,-119.67,59.03
296623,2018-06-29 11:19:21.468750,-104.52,59.03
296624,2018-06-29 11:19:21.500000,-61.14,59.03
296625,2018-06-29 11:19:21.531250,-8.81,59.13
296626,2018-06-29 11:19:21.562500,31.55,59.13
296627,2018-06-29 11:19:21.593750,55.16,59.13
296628,2018-06-29 11:19:21.625000,66.69,59.13
296629,2018-06-29 11:19:21.656250,69.45,59.13
296630,2018-06-29 11:19:21.687500,67.24,59.13
296631,2018-06-29 11:19:21.718750,65.65,59.13
296632,2018-06-29 11:19:21.750000,66.49,59.13
296633,2018-06-29 11:19:21.781250,67.16,59.13
296634,2018-06-29 11:19:21.812500,66.5,59.13
296635,2018-06-29 11:19:21.843750,66.2,59.13
296636,2018-06-29 11:19:21.875000,65.8,59.13
296637,2018-06-29 11:19:21.906250,61.46,59.13
296638,2018-06-29 11:19:21.937500,51.62,59.13
296639,2018-06-29 11:19:21.968750,39.64,59.13
296640,2018-06-29 11:19:22.000000,29.47,59.13
296641,2018-06-29 11:19:22.031250,21.16,59.13
296642,2018-06-29 11:19:22.062500,12.02,59.13
296643,2018-06-29 11:19:22.093750,1.0,59.13
296644,2018-06-29 11:19:22.125000,-9.8,59.13
296645,2018-06-29 11:19:22.156250,-18.6,59.13
296646,2018-06-29 11:19:22.187500,-27.46,59.13
296647,2018-06-29 11:19:22.218750,-39.7,59.13
296648,2018-06-29 11:19:22.250000,-54.49,59.13
296649,2018-06-29 11:19:22.281250,-67.37,59.13
296650,2018-06-29 11:19:22.312500,-76.32,59.13
296651,2018-06-29 11:19:22.343750,-85.12,59.13
296652,2018-06-29 11:19:22.375000,-99.56,59.13
296653,2018-06-29 11:19:22.406250,-117.66,59.13
296654,2018-06-29 11:19:22.437500,-123.72,59.13
296655,2018-06-29 11:19:22.468750,-100.73,59.13
296656,2018-06-29 11:19:22.500000,-51.42,59.13
296657,2018-06-29 11:19:22.531250,1.71,59.23
296658,2018-06-29 11:19:22.562500,39.25,59.23
296659,2018-06-29 11:19:22.593750,58.81,59.23
296660,2018-06-29 11:19:22.625000,66.87,59.23
296661,2018-06-29 11:19:22.656250,68.25,59.23
296662,2018-06-29 11:19:22.687500,66.55,59.23
296663,2018-06-29 11:19:22.718750,65.98,59.23
296664,2018-06-29 11:19:22.750000,67.56,59.23
296665,2018-06-29 11:19:22.781250,68.57,59.23
296666,2018-06-29 11:19:22.812500,67.92,59.23
296667,2018-06-29 11:19:22.843750,67.17,59.23
296668,2018-06-29 11:19:22.875000,65.92,59.23
296669,2018-06-29 11:19:22.906250,61.43,59.23
296670,2018-06-29 11:19:22.937500,52.6,59.23
296671,2018-06-29 11:19:22.968750,41.57,59.23
296672,2018-06-29 11:19:23.000000,31.66,59.23
296673,2018-06-29 11:19:23.031250,24.2,59.23
296674,2018-06-29 11:19:23.062500,17.46,59.23
296675,2018-06-29 11:19:23.093750,9.38,59.23
296676,2018-06-29 11:19:23.125000,0.17,59.23
296677,2018-06-29 11:19:23.156250,-8.49,59.23
296678,2018-06-29 11:19:23.187500,-15.99,59.23
296679,2018-06-29 11:19:23.218750,-24.1,59.23
296680,2018-06-29 11:19:23.250000,-35.45,59.23
296681,2018-06-29 11:19:23.281250,-49.46,59.23
296682,2018-06-29 11:19:23.312500,-61.85,59.23
296683,2018-06-29 11:19:23.343750,-70.28,59.23
296684,2018-06-29 11:19:23.375000,-77.91,59.23
296685,2018-06-29 11:19:23.406250,-89.91,59.23
296686,2018-06-29 11:19:23.437500,-106.23,59.23
296687,2018-06-29 11:19:23.468750,-115.67,59.23
296688,2018-06-29 11:19:23.500000,-101.17,59.23
296689,2018-06-29 11:19:23.531250,-58.75,59.35
296690,2018-06-29 11:19:23.562500,-6.56,59.35
296691,2018-06-29 11:19:23.593750,32.79,59.35
296692,2018-06-29 11:19:23.625000,52.05,59.35
296693,2018-06-29 11:19:23.656250,56.63,59.35
296694,2018-06-29 11:19:23.687500,52.85,59.35
296695,2018-06-29 11:19:23.718750,46.21,59.35
296696,2018-06-29 11:19:23.750000,42.89,59.35
296697,2018-06-29 11:19:23.781250,45.32,59.35
296698,2018-06-29 11:19:23.812500,49.84,59.35
296699,2018-06-29 11:19:23.843750,52.34,59.35
296700,2018-06-29 11:19:23.875000,53.07,59.35
296701,2018-06-29 11:19:23.906250,52.77,59.35
296702,2018-06-29 11:19:23.937500,48.9,59.35
296703,2018-06-29 11:19:23.968750,39.82,59.35
296704,2018-06-29 11:19:24.000000,28.88,59.35
296705,2018-06-29 11:19:24.031250,20.31,59.35
296706,2018-06-29 11:19:24.062500,13.28,59.35
296707,2018-06-29 11:19:24.093750,4.51,59.35
296708,2018-06-29 11:19:24.125000,-5.22,59.35
296709,2018-06-29 11:19:24.156250,-12.53,59.35
296710,2018-06-29 11:19:24.187500,-18.43,59.35
296711,2018-06-29 11:19:24.218750,-27.32,59.35
296712,2018-06-29 11:19:24.250000,-39.36,59.35
296713,2018-06-29 11:19:24.281250,-50.24,59.35
296714,2018-06-29 11:19:24.312500,-58.27,59.35
296715,2018-06-29 11:19:24.343750,-66.75,59.35
296716,2018-06-29 11:19:24.375000,-79.72,59.35
296717,2018-06-29 11:19:24.406250,-95.72,59.35
296718,2018-06-29 11:19:24.437500,-102.74,59.35
296719,2018-06-29 11:19:24.468750,-84.73,59.35
296720,2018-06-29 11:19:24.500000,-40.78,59.35
296721,2018-06-29 11:19:24.531250,9.26,59.48
296722,2018-06-29 11:19:24.562500,44.52,59.48
296723,2018-06-29 11:19:24.593750,60.4,59.48
296724,2018-06-29 11:19:24.625000,63.15,59.48
296725,2018-06-29 11:19:24.656250,58.65,59.48
296726,2018-06-29 11:19:24.687500,51.61,59.48
296727,2018-06-29 11:19:24.718750,47.27,59.48
296728,2018-06-29 11:19:24.750000,48.18,59.48
296729,2018-06-29 11:19:24.781250,51.75,59.48
296730,2018-06-29 11:19:24.812500,53.83,59.48
296731,2018-06-29 11:19:24.843750,52.91,59.48
296732,2018-06-29 11:19:24.875000,49.27,59.48
296733,2018-06-29 11:19:24.906250,42.89,59.48
296734,2018-06-29 11:19:24.937500,33.76,59.48
296735,2018-06-29 11:19:24.968750,22.51,59.48
296736,2018-06-29 11:19:25.000000,10.01,59.48
296737,2018-06-29 11:19:25.031250,-2.39,59.48
296738,2018-06-29 11:19:25.062500,-13.0,59.48
296739,2018-06-29 11:19:25.093750,-22.05,59.48
296740,2018-06-29 11:19:25.125000,-32.3,59.48
296741,2018-06-29 11:19:25.156250,-45.03,59.48
296742,2018-06-29 11:19:25.187500,-57.68,59.48
296743,2018-06-29 11:19:25.218750,-67.9,59.48
296744,2018-06-29 11:19:25.250000,-77.41,59.48
296745,2018-06-29 11:19:25.281250,-90.52,59.48
296746,2018-06-29 11:19:25.312500,-108.8,59.48
296747,2018-06-29 11:19:25.343750,-123.27,59.48
296748,2018-06-29 11:19:25.375000,-115.31,59.48
296749,2018-06-29 11:19:25.406250,-76.34,59.48
296750,2018-06-29 11:19:25.437500,-22.21,59.48
296751,2018-06-29 11:19:25.468750,22.98,59.48
296752,2018-06-29 11:19:25.500000,49.98,59.48
296753,2018-06-29 11:19:25.531250,62.74,59.63
296754,2018-06-29 11:19:25.562500,65.86,59.63
296755,2018-06-29 11:19:25.593750,63.21,59.63
296756,2018-06-29 11:19:25.625000,60.05,59.63
296757,2018-06-29 11:19:25.656250,59.49,59.63
296758,2018-06-29 11:19:25.687500,60.59,59.63
296759,2018-06-29 11:19:25.718750,61.79,59.63
296760,2018-06-29 11:19:25.750000,63.02,59.63
296761,2018-06-29 11:19:25.781250,63.07,59.63
296762,2018-06-29 11:19:25.812500,58.84,59.63
296763,2018-06-29 11:19:25.843750,49.53,59.63
296764,2018-06-29 11:19:25.875000,38.67,59.63
296765,2018-06-29 11:19:25.906250,29.34,59.63
296766,2018-06-29 11:19:25.937500,20.27,59.63
296767,2018-06-29 11:19:25.968750,9.01,59.63
296768,2018-06-29 11:19:26.000000,-3.4,59.63
296769,2018-06-29 11:19:26.031250,-13.74,59.63
296770,2018-06-29 11:19:26.062500,-22.02,59.63
296771,2018-06-29 11:19:26.093750,-32.0,59.63
296772,2018-06-29 11:19:26.125000,-45.56,59.63
296773,2018-06-29 11:19:26.156250,-59.51,59.63
296774,2018-06-29 11:19:26.187500,-70.23,59.63
296775,2018-06-29 11:19:26.218750,-79.08,59.63
296776,2018-06-29 11:19:26.250000,-91.21,59.63
296777,2018-06-29 11:19:26.281250,-108.53,59.63
296778,2018-06-29 11:19:26.312500,-120.79,59.63
296779,2018-06-29 11:19:26.343750,-109.02,59.63
296780,2018-06-29 11:19:26.375000,-66.34,59.63
296781,2018-06-29 11:19:26.406250,-10.07,59.63
296782,2018-06-29 11:19:26.437500,35.32,59.63
296783,2018-06-29 11:19:26.468750,60.51,59.63
296784,2018-06-29 11:19:26.500000,70.25,59.63
296785,2018-06-29 11:19:26.531250,70.68,59.77
296786,2018-06-29 11:19:26.562500,66.32,59.77
296787,2018-06-29 11:19:26.593750,62.55,59.77
296788,2018-06-29 11:19:26.625000,62.93,59.77
296789,2018-06-29 11:19:26.656250,65.7,59.77
296790,2018-06-29 11:19:26.687500,67.37,59.77
296791,2018-06-29 11:19:26.718750,67.79,59.77
296792,2018-06-29 11:19:26.750000,68.08,59.77
296793,2018-06-29 11:19:26.781250,66.26,59.77
296794,2018-06-29 11:19:26.812500,59.2,59.77
296795,2018-06-29 11:19:26.843750,47.75,59.77
296796,2018-06-29 11:19:26.875000,36.42,59.77
296797,2018-06-29 11:19:26.906250,27.99,59.77
296798,2018-06-29 11:19:26.937500,20.57,59.77
296799,2018-06-29 11:19:26.968750,11.08,59.77
296800,2018-06-29 11:19:27.000000,0.01,59.77
296801,2018-06-29 11:19:27.031250,-9.57,59.77
296802,2018-06-29 11:19:27.062500,-16.86,59.77
296803,2018-06-29 11:19:27.093750,-25.2,59.77
296804,2018-06-29 11:19:27.125000,-37.83,59.77
296805,2018-06-29 11:19:27.156250,-53.13,59.77
296806,2018-06-29 11:19:27.187500,-66.21,59.77
296807,2018-06-29 11:19:27.218750,-74.99,59.77
296808,2018-06-29 11:19:27.250000,-82.86,59.77
296809,2018-06-29 11:19:27.281250,-95.67,59.77
296810,2018-06-29 11:19:27.312500,-113.46,59.77
296811,2018-06-29 11:19:27.343750,-122.18,59.77
296812,2018-06-29 11:19:27.375000,-102.18,59.77
296813,2018-06-29 11:19:27.406250,-52.39,59.77
296814,2018-06-29 11:19:27.437500,4.05,59.77
296815,2018-06-29 11:19:27.468750,44.34,59.77
296816,2018-06-29 11:19:27.500000,64.04,59.77
296817,2018-06-29 11:19:27.531250,68.75,59.9
296818,2018-06-29 11:19:27.562500,64.19,59.9
296819,2018-06-29 11:19:27.593750,57.81,59.9
296820,2018-06-29 11:19:27.625000,56.33,59.9
296821,2018-06-29 11:19:27.656250,59.19,59.9
296822,2018-06-29 11:19:27.687500,61.59,59.9
296823,2018-06-29 11:19:27.718750,62.61,59.9
296824,2018-06-29 11:19:27.750000,63.46,59.9
296825,2018-06-29 11:19:27.781250,62.1,59.9
296826,2018-06-29 11:19:27.812500,55.4,59.9
296827,2018-06-29 11:19:27.843750,44.3,59.9
296828,2018-06-29 11:19:27.875000,32.89,59.9
296829,2018-06-29 11:19:27.906250,23.26,59.9
296830,2018-06-29 11:19:27.937500,13.76,59.9
296831,2018-06-29 11:19:27.968750,2.73,59.9
296832,2018-06-29 11:19:28.000000,-7.55,59.9
296833,2018-06-29 11:19:28.031250,-14.63,59.9
296834,2018-06-29 11:19:28.062500,-21.18,59.9
296835,2018-06-29 11:19:28.093750,-31.32,59.9
296836,2018-06-29 11:19:28.125000,-44.02,59.9
296837,2018-06-29 11:19:28.156250,-55.04,59.9
296838,2018-06-29 11:19:28.187500,-62.95,59.9
296839,2018-06-29 11:19:28.218750,-70.37,59.9
296840,2018-06-29 11:19:28.250000,-81.55,59.9
296841,2018-06-29 11:19:28.281250,-96.12,59.9
296842,2018-06-29 11:19:28.312500,-101.62,59.9
296843,2018-06-29 11:19:28.343750,-81.79,59.9
296844,2018-06-29 11:19:28.375000,-37.88,59.9
296845,2018-06-29 11:19:28.406250,9.22,59.9
296846,2018-06-29 11:19:28.437500,41.29,59.9
296847,2018-06-29 11:19:28.468750,55.48,59.9
296848,2018-06-29 11:19:28.500000,56.17,59.9
296849,2018-06-29 11:19:28.531250,48.42,60.02
296850,2018-06-29 11:19:28.562500,39.81,60.02
296851,2018-06-29 11:19:28.593750,37.58,60.02
296852,2018-06-29 11:19:28.625000,41.67,60.02
296853,2018-06-29 11:19:28.656250,45.61,60.02
296854,2018-06-29 11:19:28.687500,45.28,60.02
296855,2018-06-29 11:19:28.718750,42.27,60.02
296856,2018-06-29 11:19:28.750000,38.51,60.02
296857,2018-06-29 11:19:28.781250,32.5,60.02
296858,2018-06-29 11:19:28.812500,22.52,60.02
296859,2018-06-29 11:19:28.843750,10.19,60.02
296860,2018-06-29 11:19:28.875000,-1.31,60.02
296861,2018-06-29 11:19:28.906250,-11.04,60.02
296862,2018-06-29 11:19:28.937500,-21.45,60.02
296863,2018-06-29 11:19:28.968750,-35.17,60.02
296864,2018-06-29 11:19:29.000000,-50.73,60.02
296865,2018-06-29 11:19:29.031250,-63.63,60.02
296866,2018-06-29 11:19:29.062500,-72.06,60.02
296867,2018-06-29 11:19:29.093750,-80.12,60.02
296868,2018-06-29 11:19:29.125000,-94.37,60.02
296869,2018-06-29 11:19:29.156250,-114.25,60.02
296870,2018-06-29 11:19:29.187500,-124.28,60.02
296871,2018-06-29 11:19:29.218750,-104.43,60.02
296872,2018-06-29 11:19:29.250000,-54.34,60.02
296873,2018-06-29 11:19:29.281250,2.64,60.02
296874,2018-06-29 11:19:29.312500,43.54,60.02
296875,2018-06-29 11:19:29.343750,63.75,60.02
296876,2018-06-29 11:19:29.375000,70.22,60.02
296877,2018-06-29 11:19:29.406250,69.29,60.02
296878,2018-06-29 11:19:29.437500,64.94,60.02
296879,2018-06-29 11:19:29.468750,61.24,60.02
296880,2018-06-29 11:19:29.500000,61.05,60.02
296881,2018-06-29 11:19:29.531250,63.07,60.15
296882,2018-06-29 11:19:29.562500,63.61,60.15
296883,2018-06-29 11:19:29.593750,61.5,60.15
296884,2018-06-29 11:19:29.625000,57.97,60.15
296885,2018-06-29 11:19:29.656250,52.16,60.15
296886,2018-06-29 11:19:29.687500,41.23,60.15
296887,2018-06-29 11:19:29.718750,25.66,60.15
296888,2018-06-29 11:19:29.750000,10.37,60.15
296889,2018-06-29 11:19:29.781250,-1.37,60.15
296890,2018-06-29 11:19:29.812500,-12.34,60.15
296891,2018-06-29 11:19:29.843750,-26.97,60.15
296892,2018-06-29 11:19:29.875000,-44.5,60.15
296893,2018-06-29 11:19:29.906250,-59.84,60.15
296894,2018-06-29 11:19:29.937500,-70.28,60.15
296895,2018-06-29 11:19:29.968750,-79.23,60.15
296896,2018-06-29 11:19:30.000000,-93.07,60.15
296897,2018-06-29 11:19:30.031250,-113.65,60.15
296898,2018-06-29 11:19:30.062500,-130.01,60.15
296899,2018-06-29 11:19:30.093750,-121.57,60.15
296900,2018-06-29 11:19:30.125000,-79.37,60.15
296901,2018-06-29 11:19:30.156250,-20.14,60.15
296902,2018-06-29 11:19:30.187500,30.27,60.15
296903,2018-06-29 11:19:30.218750,60.79,60.15
296904,2018-06-29 11:19:30.250000,75.23,60.15
296905,2018-06-29 11:19:30.281250,79.63,60.15
296906,2018-06-29 11:19:30.312500,78.58,60.15
296907,2018-06-29 11:19:30.343750,76.71,60.15
296908,2018-06-29 11:19:30.375000,76.84,60.15
296909,2018-06-29 11:19:30.406250,78.05,60.15
296910,2018-06-29 11:19:30.437500,78.17,60.15
296911,2018-06-29 11:19:30.468750,77.39,60.15
296912,2018-06-29 11:19:30.500000,76.18,60.15
296913,2018-06-29 11:19:30.531250,71.68,60.28
296914,2018-06-29 11:19:30.562500,61.16,60.28
296915,2018-06-29 11:19:30.593750,47.64,60.28
296916,2018-06-29 11:19:30.625000,36.33,60.28
296917,2018-06-29 11:19:30.656250,26.9,60.28
296918,2018-06-29 11:19:30.687500,14.98,60.28
296919,2018-06-29 11:19:30.718750,0.33,60.28
296920,2018-06-29 11:19:30.750000,-12.39,60.28
296921,2018-06-29 11:19:30.781250,-22.0,60.28
296922,2018-06-29 11:19:30.812500,-33.29,60.28
296923,2018-06-29 11:19:30.843750,-48.94,60.28
296924,2018-06-29 11:19:30.875000,-65.13,60.28
296925,2018-06-29 11:19:30.906250,-77.6,60.28
296926,2018-06-29 11:19:30.937500,-87.44,60.28
296927,2018-06-29 11:19:30.968750,-99.94,60.28
296928,2018-06-29 11:19:31.000000,-118.95,60.28
296929,2018-06-29 11:19:31.031250,-136.73,60.28
296930,2018-06-29 11:19:31.062500,-132.02,60.28
296931,2018-06-29 11:19:31.093750,-91.38,60.28
296932,2018-06-29 11:19:31.125000,-29.76,60.28
296933,2018-06-29 11:19:31.156250,24.04,60.28
296934,2018-06-29 11:19:31.187500,56.09,60.28
296935,2018-06-29 11:19:31.218750,70.6,60.28
296936,2018-06-29 11:19:31.250000,74.48,60.28
296937,2018-06-29 11:19:31.281250,71.92,60.28
296938,2018-06-29 11:19:31.312500,68.19,60.28
296939,2018-06-29 11:19:31.343750,68.07,60.28
296940,2018-06-29 11:19:31.375000,71.14,60.28
296941,2018-06-29 11:19:31.406250,73.39,60.28
296942,2018-06-29 11:19:31.437500,73.38,60.28
296943,2018-06-29 11:19:31.468750,72.65,60.28
296944,2018-06-29 11:19:31.500000,70.47,60.28
296945,2018-06-29 11:19:31.531250,63.6,60.42
296946,2018-06-29 11:19:31.562500,51.73,60.42
296947,2018-06-29 11:19:31.593750,39.07,60.42
296948,2018-06-29 11:19:31.625000,29.19,60.42
296949,2018-06-29 11:19:31.656250,21.06,60.42
296950,2018-06-29 11:19:31.687500,11.53,60.42
296951,2018-06-29 11:19:31.718750,0.04,60.42
296952,2018-06-29 11:19:31.750000,-10.32,60.42
296953,2018-06-29 11:19:31.781250,-17.19,60.42
296954,2018-06-29 11:19:31.812500,-23.54,60.42
296955,2018-06-29 11:19:31.843750,-34.45,60.42
296956,2018-06-29 11:19:31.875000,-49.51,60.42
296957,2018-06-29 11:19:31.906250,-62.89,60.42
296958,2018-06-29 11:19:31.937500,-71.63,60.42
296959,2018-06-29 11:19:31.968750,-79.05,60.42
296960,2018-06-29 11:19:32.000000,-90.75,60.42
296961,2018-06-29 11:19:32.031250,-107.94,60.42
296962,2018-06-29 11:19:32.062500,-120.01,60.42
296963,2018-06-29 11:19:32.093750,-107.66,60.42
296964,2018-06-29 11:19:32.125000,-64.44,60.42
296965,2018-06-29 11:19:32.156250,-9.29,60.42
296966,2018-06-29 11:19:32.187500,32.55,60.42
296967,2018-06-29 11:19:32.218750,53.19,60.42
296968,2018-06-29 11:19:32.250000,58.86,60.42
296969,2018-06-29 11:19:32.281250,55.7,60.42
296970,2018-06-29 11:19:32.312500,48.42,60.42
296971,2018-06-29 11:19:32.343750,43.63,60.42
296972,2018-06-29 11:19:32.375000,45.5,60.42
296973,2018-06-29 11:19:32.406250,51.22,60.42
296974,2018-06-29 11:19:32.437500,55.44,60.42
296975,2018-06-29 11:19:32.468750,56.24,60.42
296976,2018-06-29 11:19:32.500000,53.73,60.42
296977,2018-06-29 11:19:32.531250,47.15,60.53
296978,2018-06-29 11:19:32.562500,37.02,60.53
296979,2018-06-29 11:19:32.593750,26.36,60.53
296980,2018-06-29 11:19:32.625000,17.09,60.53
296981,2018-06-29 11:19:32.656250,8.04,60.53
296982,2018-06-29 11:19:32.687500,-1.79,60.53
296983,2018-06-29 11:19:32.718750,-11.38,60.53
296984,2018-06-29 11:19:32.750000,-20.72,60.53
296985,2018-06-29 11:19:32.781250,-32.1,60.53
296986,2018-06-29 11:19:32.812500,-45.99,60.53
296987,2018-06-29 11:19:32.843750,-59.11,60.53
296988,2018-06-29 11:19:32.875000,-69.3,60.53
296989,2018-06-29 11:19:32.906250,-79.69,60.53
296990,2018-06-29 11:19:32.937500,-95.26,60.53
296991,2018-06-29 11:19:32.968750,-114.13,60.53
296992,2018-06-29 11:19:33.000000,-121.93,60.53
296993,2018-06-29 11:19:33.031250,-101.68,60.53
296994,2018-06-29 11:19:33.062500,-54.02,60.53
296995,2018-06-29 11:19:33.093750,-0.26,60.53
296996,2018-06-29 11:19:33.125000,38.91,60.53
